Timestamp,ECG1,ECG2
2024-01-01 00:00:00.000,0.16,-0.29
2024-01-01 00:00:00.008,0.18,-0.3
2024-01-01 00:00:00.016,0.17,-0.32
2024-01-01 00:00:00.023,0.18,-0.29
2024-01-01 00:00:00.031,0.18,-0.31
2024-01-01 00:00:00.039,0.17,-0.33
2024-01-01 00:00:00.047,0.17,-0.33
2024-01-01 00:00:00.055,0.13,-0.36
2024-01-01 00:00:00.063,0.13,-0.39
2024-01-01 00:00:00.070,0.1,-0.39
2024-01-01 00:00:00.078,0.06,-0.35
2024-01-01 00:00:00.086,0.04,-0.31
2024-01-01 00:00:00.094,0.01,-0.27
2024-01-01 00:00:00.102,-0.01,-0.2
2024-01-01 00:00:00.109,-0.02,-0.15
2024-01-01 00:00:00.117,-0.02,-0.15
2024-01-01 00:00:00.125,-0.02,-0.16
2024-01-01 00:00:00.133,-0.03,-0.12
2024-01-01 00:00:00.141,0.0,-0.14
2024-01-01 00:00:00.148,0.0,-0.16
2024-01-01 00:00:00.156,0.0,-0.18
2024-01-01 00:00:00.164,0.02,-0.15
2024-01-01 00:00:00.172,0.03,-0.18
2024-01-01 00:00:00.180,0.04,-0.2
2024-01-01 00:00:00.188,0.03,-0.17
2024-01-01 00:00:00.195,0.07,-0.19
2024-01-01 00:00:00.203,0.05,-0.22
2024-01-01 00:00:00.211,0.06,-0.21
2024-01-01 00:00:00.219,0.05,-0.21
2024-01-01 00:00:00.227,0.05,-0.22
2024-01-01 00:00:00.234,0.05,-0.24
2024-01-01 00:00:00.242,0.05,-0.21
2024-01-01 00:00:00.250,0.06,-0.21
2024-01-01 00:00:00.258,0.05,-0.23
2024-01-01 00:00:00.266,0.05,-0.23
2024-01-01 00:00:00.273,0.03,-0.21
2024-01-01 00:00:00.281,0.03,-0.23
2024-01-01 00:00:00.289,0.03,-0.23
2024-01-01 00:00:00.297,0.02,-0.21
2024-01-01 00:00:00.305,0.02,-0.21
2024-01-01 00:00:00.313,0.02,-0.24
2024-01-01 00:00:00.320,0.01,-0.26
2024-01-01 00:00:00.328,0.0,-0.24
2024-01-01 00:00:00.336,0.0,-0.24
2024-01-01 00:00:00.344,0.0,-0.26
2024-01-01 00:00:00.352,-0.01,-0.22
2024-01-01 00:00:00.359,0.0,-0.24
2024-01-01 00:00:00.367,-0.01,-0.25
2024-01-01 00:00:00.375,-0.01,-0.27
2024-01-01 00:00:00.383,-0.01,-0.26
2024-01-01 00:00:00.391,-0.01,-0.25
2024-01-01 00:00:00.398,-0.01,-0.27
2024-01-01 00:00:00.406,-0.02,-0.26
2024-01-01 00:00:00.414,-0.02,-0.24
2024-01-01 00:00:00.422,-0.01,-0.27
2024-01-01 00:00:00.430,-0.01,-0.27
2024-01-01 00:00:00.438,0.0,-0.21
2024-01-01 00:00:00.445,0.06,-0.18
2024-01-01 00:00:00.453,0.05,-0.2
2024-01-01 00:00:00.461,0.09,-0.14
2024-01-01 00:00:00.469,0.11,-0.07
2024-01-01 00:00:00.477,0.16,0.12
2024-01-01 00:00:00.484,0.13,0.07
2024-01-01 00:00:00.492,0.05,0.11
2024-01-01 00:00:00.500,0.03,0.09
2024-01-01 00:00:00.508,-0.09,-0.04
2024-01-01 00:00:00.516,-0.12,-0.06
2024-01-01 00:00:00.523,-0.09,-0.06
2024-01-01 00:00:00.531,-0.08,-0.2
2024-01-01 00:00:00.539,-0.09,-0.3
2024-01-01 00:00:00.547,-0.08,-0.28
2024-01-01 00:00:00.555,-0.08,-0.26
2024-01-01 00:00:00.563,-0.07,-0.27
2024-01-01 00:00:00.570,-0.08,-0.34
2024-01-01 00:00:00.578,0.09,-0.32
2024-01-01 00:00:00.586,0.45,0.84
2024-01-01 00:00:00.594,0.79,3.93
2024-01-01 00:00:00.602,-1.17,5.11
2024-01-01 00:00:00.609,-1.91,5.0
2024-01-01 00:00:00.617,-1.64,1.32
2024-01-01 00:00:00.625,-1.28,-0.67
2024-01-01 00:00:00.633,-0.52,-0.48
2024-01-01 00:00:00.641,-0.15,-0.28
2024-01-01 00:00:00.648,-0.03,-0.38
2024-01-01 00:00:00.656,-0.03,-0.39
2024-01-01 00:00:00.664,0.01,-0.39
2024-01-01 00:00:00.672,0.03,-0.4
2024-01-01 00:00:00.680,0.05,-0.41
2024-01-01 00:00:00.688,0.06,-0.37
2024-01-01 00:00:00.695,0.08,-0.37
2024-01-01 00:00:00.703,0.09,-0.4
2024-01-01 00:00:00.711,0.1,-0.36
2024-01-01 00:00:00.719,0.13,-0.35
2024-01-01 00:00:00.727,0.14,-0.36
2024-01-01 00:00:00.734,0.16,-0.38
2024-01-01 00:00:00.742,0.15,-0.33
2024-01-01 00:00:00.750,0.18,-0.33
2024-01-01 00:00:00.758,0.2,-0.34
2024-01-01 00:00:00.766,0.22,-0.33
2024-01-01 00:00:00.773,0.22,-0.31
2024-01-01 00:00:00.781,0.26,-0.33
2024-01-01 00:00:00.789,0.28,-0.35
2024-01-01 00:00:00.797,0.28,-0.33
2024-01-01 00:00:00.805,0.3,-0.35
2024-01-01 00:00:00.813,0.29,-0.36
2024-01-01 00:00:00.820,0.29,-0.4
2024-01-01 00:00:00.828,0.27,-0.41
2024-01-01 00:00:00.836,0.24,-0.45
2024-01-01 00:00:00.844,0.21,-0.49
2024-01-01 00:00:00.852,0.17,-0.46
2024-01-01 00:00:00.859,0.13,-0.45
2024-01-01 00:00:00.867,0.1,-0.41
2024-01-01 00:00:00.875,0.05,-0.35
2024-01-01 00:00:00.883,0.03,-0.25
2024-01-01 00:00:00.891,0.04,-0.2
2024-01-01 00:00:00.898,0.05,-0.17
2024-01-01 00:00:00.906,0.04,-0.12
2024-01-01 00:00:00.914,0.05,-0.1
2024-01-01 00:00:00.922,0.06,-0.12
2024-01-01 00:00:00.930,0.06,-0.12
2024-01-01 00:00:00.938,0.06,-0.1
2024-01-01 00:00:00.945,0.06,-0.12
2024-01-01 00:00:00.953,0.05,-0.12
2024-01-01 00:00:00.961,0.04,-0.1
2024-01-01 00:00:00.969,0.07,-0.1
2024-01-01 00:00:00.977,0.06,-0.13
2024-01-01 00:00:00.984,0.07,-0.14
2024-01-01 00:00:00.992,0.06,-0.12
2024-01-01 00:00:01.000,0.08,-0.13
2024-01-01 00:00:01.008,0.08,-0.16
2024-01-01 00:00:01.016,0.08,-0.14
2024-01-01 00:00:01.023,0.09,-0.14
2024-01-01 00:00:01.031,0.1,-0.18
2024-01-01 00:00:01.039,0.1,-0.19
2024-01-01 00:00:01.047,0.09,-0.18
2024-01-01 00:00:01.055,0.09,-0.19
2024-01-01 00:00:01.063,0.09,-0.21
2024-01-01 00:00:01.070,0.08,-0.19
2024-01-01 00:00:01.078,0.07,-0.2
2024-01-01 00:00:01.086,0.07,-0.21
2024-01-01 00:00:01.094,0.06,-0.24
2024-01-01 00:00:01.102,0.05,-0.21
2024-01-01 00:00:01.109,0.05,-0.22
2024-01-01 00:00:01.117,0.05,-0.23
2024-01-01 00:00:01.125,0.02,-0.21
2024-01-01 00:00:01.133,0.04,-0.2
2024-01-01 00:00:01.141,0.03,-0.22
2024-01-01 00:00:01.148,0.01,-0.23
2024-01-01 00:00:01.156,0.01,-0.2
2024-01-01 00:00:01.164,0.0,-0.21
2024-01-01 00:00:01.172,0.01,-0.23
2024-01-01 00:00:01.180,0.0,-0.23
2024-01-01 00:00:01.188,0.0,-0.22
2024-01-01 00:00:01.195,0.0,-0.24
2024-01-01 00:00:01.203,0.0,-0.25
2024-01-01 00:00:01.211,-0.02,-0.21
2024-01-01 00:00:01.219,-0.01,-0.2
2024-01-01 00:00:01.227,-0.01,-0.22
2024-01-01 00:00:01.234,-0.02,-0.21
2024-01-01 00:00:01.242,-0.02,-0.2
2024-01-01 00:00:01.250,-0.02,-0.21
2024-01-01 00:00:01.258,-0.02,-0.19
2024-01-01 00:00:01.266,0.02,-0.09
2024-01-01 00:00:01.273,0.02,-0.1
2024-01-01 00:00:01.281,0.06,-0.08
2024-01-01 00:00:01.289,0.06,-0.03
2024-01-01 00:00:01.297,0.14,0.22
2024-01-01 00:00:01.305,0.1,0.16
2024-01-01 00:00:01.313,0.02,0.17
2024-01-01 00:00:01.320,-0.02,0.14
2024-01-01 00:00:01.328,-0.13,0.04
2024-01-01 00:00:01.336,-0.13,0.02
2024-01-01 00:00:01.344,-0.13,-0.02
2024-01-01 00:00:01.352,-0.1,-0.15
2024-01-01 00:00:01.359,-0.1,-0.22
2024-01-01 00:00:01.367,-0.1,-0.25
2024-01-01 00:00:01.375,-0.11,-0.21
2024-01-01 00:00:01.383,-0.11,-0.19
2024-01-01 00:00:01.391,-0.09,-0.36
2024-01-01 00:00:01.398,0.16,-0.07
2024-01-01 00:00:01.406,0.43,1.44
2024-01-01 00:00:01.414,0.75,4.62
2024-01-01 00:00:01.422,-1.52,5.11
2024-01-01 00:00:01.430,-1.93,4.36
2024-01-01 00:00:01.438,-1.36,0.19
2024-01-01 00:00:01.445,-1.11,-0.42
2024-01-01 00:00:01.453,-0.44,-0.38
2024-01-01 00:00:01.461,-0.08,-0.24
2024-01-01 00:00:01.469,-0.06,-0.33
2024-01-01 00:00:01.477,-0.04,-0.36
2024-01-01 00:00:01.484,0.0,-0.37
2024-01-01 00:00:01.492,0.02,-0.35
2024-01-01 00:00:01.500,0.05,-0.37
2024-01-01 00:00:01.508,0.06,-0.38
2024-01-01 00:00:01.516,0.06,-0.36
2024-01-01 00:00:01.523,0.09,-0.36
2024-01-01 00:00:01.531,0.09,-0.36
2024-01-01 00:00:01.539,0.1,-0.33
2024-01-01 00:00:01.547,0.12,-0.32
2024-01-01 00:00:01.555,0.14,-0.32
2024-01-01 00:00:01.563,0.14,-0.34
2024-01-01 00:00:01.570,0.16,-0.29
2024-01-01 00:00:01.578,0.19,-0.3
2024-01-01 00:00:01.586,0.21,-0.32
2024-01-01 00:00:01.594,0.21,-0.32
2024-01-01 00:00:01.602,0.24,-0.3
2024-01-01 00:00:01.609,0.25,-0.32
2024-01-01 00:00:01.617,0.25,-0.35
2024-01-01 00:00:01.625,0.25,-0.33
2024-01-01 00:00:01.633,0.26,-0.36
2024-01-01 00:00:01.641,0.24,-0.4
2024-01-01 00:00:01.648,0.21,-0.43
2024-01-01 00:00:01.656,0.19,-0.45
2024-01-01 00:00:01.664,0.17,-0.48
2024-01-01 00:00:01.672,0.11,-0.49
2024-01-01 00:00:01.680,0.07,-0.42
2024-01-01 00:00:01.688,0.05,-0.35
2024-01-01 00:00:01.695,0.01,-0.31
2024-01-01 00:00:01.703,0.01,-0.23
2024-01-01 00:00:01.711,-0.01,-0.15
2024-01-01 00:00:01.719,0.01,-0.13
2024-01-01 00:00:01.727,0.0,-0.12
2024-01-01 00:00:01.734,0.01,-0.09
2024-01-01 00:00:01.742,0.02,-0.08
2024-01-01 00:00:01.750,0.01,-0.11
2024-01-01 00:00:01.758,0.01,-0.12
2024-01-01 00:00:01.766,0.02,-0.09
2024-01-01 00:00:01.773,0.02,-0.11
2024-01-01 00:00:01.781,0.01,-0.12
2024-01-01 00:00:01.789,0.01,-0.08
2024-01-01 00:00:01.797,0.02,-0.1
2024-01-01 00:00:01.805,0.02,-0.12
2024-01-01 00:00:01.813,0.02,-0.12
2024-01-01 00:00:01.820,0.02,-0.11
2024-01-01 00:00:01.828,0.02,-0.13
2024-01-01 00:00:01.836,0.02,-0.14
2024-01-01 00:00:01.844,0.02,-0.13
2024-01-01 00:00:01.852,0.03,-0.14
2024-01-01 00:00:01.859,0.03,-0.16
2024-01-01 00:00:01.867,0.02,-0.17
2024-01-01 00:00:01.875,0.02,-0.15
2024-01-01 00:00:01.883,0.02,-0.17
2024-01-01 00:00:01.891,0.03,-0.19
2024-01-01 00:00:01.898,0.01,-0.16
2024-01-01 00:00:01.906,0.01,-0.17
2024-01-01 00:00:01.914,0.0,-0.18
2024-01-01 00:00:01.922,-0.02,-0.18
2024-01-01 00:00:01.930,0.0,-0.16
2024-01-01 00:00:01.938,-0.01,-0.18
2024-01-01 00:00:01.945,-0.02,-0.2
2024-01-01 00:00:01.953,-0.02,-0.16
2024-01-01 00:00:01.961,-0.02,-0.17
2024-01-01 00:00:01.969,-0.02,-0.19
2024-01-01 00:00:01.977,-0.03,-0.18
2024-01-01 00:00:01.984,-0.04,-0.16
2024-01-01 00:00:01.992,-0.05,-0.18
2024-01-01 00:00:02.000,-0.05,-0.2
2024-01-01 00:00:02.008,-0.06,-0.16
2024-01-01 00:00:02.016,-0.06,-0.17
2024-01-01 00:00:02.023,-0.06,-0.18
2024-01-01 00:00:02.031,-0.06,-0.18
2024-01-01 00:00:02.039,-0.06,-0.15
2024-01-01 00:00:02.047,-0.06,-0.16
2024-01-01 00:00:02.055,-0.06,-0.17
2024-01-01 00:00:02.063,-0.06,-0.11
2024-01-01 00:00:02.070,-0.02,-0.08
2024-01-01 00:00:02.078,-0.02,-0.09
2024-01-01 00:00:02.086,-0.01,-0.04
2024-01-01 00:00:02.094,0.03,0.01
2024-01-01 00:00:02.102,0.08,0.18
2024-01-01 00:00:02.109,0.09,0.2
2024-01-01 00:00:02.117,0.0,0.21
2024-01-01 00:00:02.125,-0.05,0.22
2024-01-01 00:00:02.133,-0.13,0.06
2024-01-01 00:00:02.141,-0.18,0.07
2024-01-01 00:00:02.148,-0.16,0.06
2024-01-01 00:00:02.156,-0.15,-0.06
2024-01-01 00:00:02.164,-0.13,-0.18
2024-01-01 00:00:02.172,-0.13,-0.19
2024-01-01 00:00:02.180,-0.14,-0.18
2024-01-01 00:00:02.188,-0.13,-0.18
2024-01-01 00:00:02.195,-0.14,-0.24
2024-01-01 00:00:02.203,-0.04,-0.26
2024-01-01 00:00:02.211,0.34,0.94
2024-01-01 00:00:02.219,0.71,4.03
2024-01-01 00:00:02.227,-1.05,5.11
2024-01-01 00:00:02.234,-1.87,4.93
2024-01-01 00:00:02.242,-1.58,1.11
2024-01-01 00:00:02.250,-1.25,-0.55
2024-01-01 00:00:02.258,-0.54,-0.42
2024-01-01 00:00:02.266,-0.17,-0.23
2024-01-01 00:00:02.273,-0.07,-0.34
2024-01-01 00:00:02.281,-0.07,-0.35
2024-01-01 00:00:02.289,-0.03,-0.35
2024-01-01 00:00:02.297,-0.01,-0.36
2024-01-01 00:00:02.305,0.01,-0.37
2024-01-01 00:00:02.313,0.02,-0.33
2024-01-01 00:00:02.320,0.03,-0.32
2024-01-01 00:00:02.328,0.04,-0.34
2024-01-01 00:00:02.336,0.04,-0.32
2024-01-01 00:00:02.344,0.04,-0.3
2024-01-01 00:00:02.352,0.06,-0.31
2024-01-01 00:00:02.359,0.08,-0.32
2024-01-01 00:00:02.367,0.08,-0.28
2024-01-01 00:00:02.375,0.09,-0.28
2024-01-01 00:00:02.383,0.1,-0.3
2024-01-01 00:00:02.391,0.11,-0.3
2024-01-01 00:00:02.398,0.12,-0.27
2024-01-01 00:00:02.406,0.14,-0.27
2024-01-01 00:00:02.414,0.15,-0.32
2024-01-01 00:00:02.422,0.17,-0.28
2024-01-01 00:00:02.430,0.15,-0.32
2024-01-01 00:00:02.438,0.16,-0.35
2024-01-01 00:00:02.445,0.14,-0.36
2024-01-01 00:00:02.453,0.12,-0.37
2024-01-01 00:00:02.461,0.12,-0.43
2024-01-01 00:00:02.469,0.08,-0.47
2024-01-01 00:00:02.477,0.04,-0.43
2024-01-01 00:00:02.484,0.03,-0.43
2024-01-01 00:00:02.492,0.01,-0.38
2024-01-01 00:00:02.500,-0.02,-0.31
2024-01-01 00:00:02.508,-0.03,-0.2
2024-01-01 00:00:02.516,-0.01,-0.15
2024-01-01 00:00:02.523,-0.03,-0.11
2024-01-01 00:00:02.531,-0.01,-0.05
2024-01-01 00:00:02.539,0.0,-0.05
2024-01-01 00:00:02.547,0.01,-0.07
2024-01-01 00:00:02.555,0.01,-0.07
2024-01-01 00:00:02.563,0.02,-0.04
2024-01-01 00:00:02.570,0.02,-0.06
2024-01-01 00:00:02.578,0.01,-0.08
2024-01-01 00:00:02.586,0.0,-0.06
2024-01-01 00:00:02.594,0.0,-0.07
2024-01-01 00:00:02.602,0.01,-0.09
2024-01-01 00:00:02.609,0.01,-0.11
2024-01-01 00:00:02.617,0.02,-0.08
2024-01-01 00:00:02.625,0.01,-0.11
2024-01-01 00:00:02.633,0.01,-0.11
2024-01-01 00:00:02.641,0.03,-0.12
2024-01-01 00:00:02.648,0.03,-0.11
2024-01-01 00:00:02.656,0.01,-0.12
2024-01-01 00:00:02.664,0.02,-0.15
2024-01-01 00:00:02.672,0.01,-0.14
2024-01-01 00:00:02.680,0.03,-0.14
2024-01-01 00:00:02.688,0.01,-0.18
2024-01-01 00:00:02.695,-0.01,-0.19
2024-01-01 00:00:02.703,0.01,-0.16
2024-01-01 00:00:02.711,0.01,-0.15
2024-01-01 00:00:02.719,0.0,-0.18
2024-01-01 00:00:02.727,-0.01,-0.15
2024-01-01 00:00:02.734,-0.01,-0.16
2024-01-01 00:00:02.742,-0.01,-0.17
2024-01-01 00:00:02.750,-0.02,-0.17
2024-01-01 00:00:02.758,-0.01,-0.14
2024-01-01 00:00:02.766,-0.01,-0.17
2024-01-01 00:00:02.773,-0.02,-0.18
2024-01-01 00:00:02.781,-0.05,-0.16
2024-01-01 00:00:02.789,-0.02,-0.17
2024-01-01 00:00:02.797,-0.03,-0.19
2024-01-01 00:00:02.805,-0.02,-0.21
2024-01-01 00:00:02.813,-0.05,-0.17
2024-01-01 00:00:02.820,-0.03,-0.16
2024-01-01 00:00:02.828,-0.04,-0.19
2024-01-01 00:00:02.836,-0.04,-0.17
2024-01-01 00:00:02.844,-0.01,-0.14
2024-01-01 00:00:02.852,0.03,-0.1
2024-01-01 00:00:02.859,-0.02,-0.11
2024-01-01 00:00:02.867,0.07,-0.05
2024-01-01 00:00:02.875,0.06,0.01
2024-01-01 00:00:02.883,0.13,0.17
2024-01-01 00:00:02.891,0.1,0.17
2024-01-01 00:00:02.898,0.03,0.16
2024-01-01 00:00:02.906,-0.02,0.14
2024-01-01 00:00:02.914,-0.12,0.01
2024-01-01 00:00:02.922,-0.14,0.01
2024-01-01 00:00:02.930,-0.15,-0.03
2024-01-01 00:00:02.938,-0.11,-0.14
2024-01-01 00:00:02.945,-0.13,-0.23
2024-01-01 00:00:02.953,-0.13,-0.23
2024-01-01 00:00:02.961,-0.14,-0.23
2024-01-01 00:00:02.969,-0.12,-0.23
2024-01-01 00:00:02.977,-0.14,-0.29
2024-01-01 00:00:02.984,0.08,-0.05
2024-01-01 00:00:02.992,0.34,1.32
2024-01-01 00:00:03.000,0.67,4.42
2024-01-01 00:00:03.008,-0.81,5.11
2024-01-01 00:00:03.016,-1.64,4.9
2024-01-01 00:00:03.023,-1.35,0.66
2024-01-01 00:00:03.031,-1.11,-0.49
2024-01-01 00:00:03.039,-0.61,-0.47
2024-01-01 00:00:03.047,-0.21,-0.25
2024-01-01 00:00:03.055,-0.11,-0.35
2024-01-01 00:00:03.063,-0.09,-0.35
2024-01-01 00:00:03.070,-0.06,-0.37
2024-01-01 00:00:03.078,-0.03,-0.4
2024-01-01 00:00:03.086,-0.03,-0.34
2024-01-01 00:00:03.094,0.0,-0.36
2024-01-01 00:00:03.102,0.0,-0.35
2024-01-01 00:00:03.109,0.01,-0.36
2024-01-01 00:00:03.117,0.02,-0.33
2024-01-01 00:00:03.125,0.04,-0.33
2024-01-01 00:00:03.133,0.05,-0.33
2024-01-01 00:00:03.141,0.04,-0.31
2024-01-01 00:00:03.148,0.06,-0.29
2024-01-01 00:00:03.156,0.08,-0.31
2024-01-01 00:00:03.164,0.08,-0.31
2024-01-01 00:00:03.172,0.1,-0.27
2024-01-01 00:00:03.180,0.12,-0.28
2024-01-01 00:00:03.188,0.14,-0.29
2024-01-01 00:00:03.195,0.15,-0.26
2024-01-01 00:00:03.203,0.17,-0.25
2024-01-01 00:00:03.211,0.17,-0.27
2024-01-01 00:00:03.219,0.17,-0.29
2024-01-01 00:00:03.227,0.16,-0.26
2024-01-01 00:00:03.234,0.15,-0.3
2024-01-01 00:00:03.242,0.14,-0.34
2024-01-01 00:00:03.250,0.1,-0.34
2024-01-01 00:00:03.258,0.1,-0.33
2024-01-01 00:00:03.266,0.06,-0.34
2024-01-01 00:00:03.273,0.02,-0.31
2024-01-01 00:00:03.281,0.0,-0.23
2024-01-01 00:00:03.289,0.01,-0.18
2024-01-01 00:00:03.297,-0.02,-0.15
2024-01-01 00:00:03.305,-0.02,-0.11
2024-01-01 00:00:03.313,-0.01,-0.08
2024-01-01 00:00:03.320,-0.02,-0.09
2024-01-01 00:00:03.328,0.01,-0.1
2024-01-01 00:00:03.336,0.0,-0.08
2024-01-01 00:00:03.344,0.0,-0.1
2024-01-01 00:00:03.352,0.01,-0.13
2024-01-01 00:00:03.359,0.01,-0.12
2024-01-01 00:00:03.367,0.01,-0.11
2024-01-01 00:00:03.375,0.02,-0.13
2024-01-01 00:00:03.383,0.02,-0.16
2024-01-01 00:00:03.391,0.03,-0.13
2024-01-01 00:00:03.398,0.02,-0.14
2024-01-01 00:00:03.406,0.03,-0.17
2024-01-01 00:00:03.414,0.03,-0.18
2024-01-01 00:00:03.422,0.02,-0.15
2024-01-01 00:00:03.430,0.03,-0.16
2024-01-01 00:00:03.438,0.02,-0.17
2024-01-01 00:00:03.445,0.01,-0.14
2024-01-01 00:00:03.453,0.01,-0.15
2024-01-01 00:00:03.461,0.01,-0.16
2024-01-01 00:00:03.469,-0.01,-0.17
2024-01-01 00:00:03.477,0.0,-0.14
2024-01-01 00:00:03.484,0.0,-0.16
2024-01-01 00:00:03.492,0.01,-0.18
2024-01-01 00:00:03.500,-0.02,-0.15
2024-01-01 00:00:03.508,0.0,-0.14
2024-01-01 00:00:03.516,-0.01,-0.16
2024-01-01 00:00:03.523,-0.02,-0.17
2024-01-01 00:00:03.531,-0.01,-0.14
2024-01-01 00:00:03.539,-0.01,-0.14
2024-01-01 00:00:03.547,-0.02,-0.17
2024-01-01 00:00:03.555,-0.02,-0.14
2024-01-01 00:00:03.563,-0.02,-0.15
2024-01-01 00:00:03.570,-0.02,-0.17
2024-01-01 00:00:03.578,-0.02,-0.19
2024-01-01 00:00:03.586,-0.03,-0.16
2024-01-01 00:00:03.594,-0.02,-0.17
2024-01-01 00:00:03.602,-0.02,-0.18
2024-01-01 00:00:03.609,-0.04,-0.15
2024-01-01 00:00:03.617,-0.02,-0.15
2024-01-01 00:00:03.625,0.02,-0.1
2024-01-01 00:00:03.633,0.04,-0.11
2024-01-01 00:00:03.641,0.04,-0.04
2024-01-01 00:00:03.648,0.08,-0.01
2024-01-01 00:00:03.656,0.12,0.12
2024-01-01 00:00:03.664,0.15,0.22
2024-01-01 00:00:03.672,0.06,0.2
2024-01-01 00:00:03.680,0.01,0.21
2024-01-01 00:00:03.688,-0.05,0.07
2024-01-01 00:00:03.695,-0.14,0.09
2024-01-01 00:00:03.703,-0.11,0.07
2024-01-01 00:00:03.711,-0.12,-0.06
2024-01-01 00:00:03.719,-0.11,-0.15
2024-01-01 00:00:03.727,-0.1,-0.17
2024-01-01 00:00:03.734,-0.1,-0.19
2024-01-01 00:00:03.742,-0.08,-0.19
2024-01-01 00:00:03.750,-0.1,-0.18
2024-01-01 00:00:03.758,-0.03,-0.32
2024-01-01 00:00:03.766,0.35,0.68
2024-01-01 00:00:03.773,0.61,3.45
2024-01-01 00:00:03.781,-0.46,5.11
2024-01-01 00:00:03.789,-1.88,5.11
2024-01-01 00:00:03.797,-1.9,2.27
2024-01-01 00:00:03.805,-1.25,-0.62
2024-01-01 00:00:03.813,-0.63,-0.38
2024-01-01 00:00:03.820,-0.26,-0.19
2024-01-01 00:00:03.828,-0.03,-0.25
2024-01-01 00:00:03.836,-0.04,-0.27
2024-01-01 00:00:03.844,0.0,-0.29
2024-01-01 00:00:03.852,0.02,-0.31
2024-01-01 00:00:03.859,0.04,-0.29
2024-01-01 00:00:03.867,0.05,-0.27
2024-01-01 00:00:03.875,0.07,-0.3
2024-01-01 00:00:03.883,0.07,-0.3
2024-01-01 00:00:03.891,0.09,-0.25
2024-01-01 00:00:03.898,0.1,-0.27
2024-01-01 00:00:03.906,0.12,-0.28
2024-01-01 00:00:03.914,0.11,-0.24
2024-01-01 00:00:03.922,0.15,-0.24
2024-01-01 00:00:03.930,0.15,-0.25
2024-01-01 00:00:03.938,0.18,-0.24
2024-01-01 00:00:03.945,0.19,-0.22
2024-01-01 00:00:03.953,0.21,-0.23
2024-01-01 00:00:03.961,0.22,-0.24
2024-01-01 00:00:03.969,0.24,-0.23
2024-01-01 00:00:03.977,0.25,-0.23
2024-01-01 00:00:03.984,0.26,-0.27
2024-01-01 00:00:03.992,0.26,-0.28
2024-01-01 00:00:04.000,0.24,-0.29
2024-01-01 00:00:04.008,0.23,-0.33
2024-01-01 00:00:04.016,0.19,-0.37
2024-01-01 00:00:04.023,0.17,-0.38
2024-01-01 00:00:04.031,0.13,-0.39
2024-01-01 00:00:04.039,0.09,-0.39
2024-01-01 00:00:04.047,0.04,-0.34
2024-01-01 00:00:04.055,0.0,-0.24
2024-01-01 00:00:04.063,0.0,-0.16
2024-01-01 00:00:04.070,-0.01,-0.11
2024-01-01 00:00:04.078,-0.02,-0.03
2024-01-01 00:00:04.086,-0.02,-0.01
2024-01-01 00:00:04.094,0.0,-0.01
2024-01-01 00:00:04.102,0.0,-0.01
2024-01-01 00:00:04.109,0.01,0.01
2024-01-01 00:00:04.117,0.0,-0.01
2024-01-01 00:00:04.125,0.0,-0.02
2024-01-01 00:00:04.133,-0.01,0.02
2024-01-01 00:00:04.141,0.01,0.02
2024-01-01 00:00:04.148,0.0,-0.01
2024-01-01 00:00:04.156,0.0,-0.02
2024-01-01 00:00:04.164,0.02,0.0
2024-01-01 00:00:04.172,0.01,-0.03
2024-01-01 00:00:04.180,0.02,-0.06
2024-01-01 00:00:04.188,0.03,-0.04
2024-01-01 00:00:04.195,0.03,-0.04
2024-01-01 00:00:04.203,0.05,-0.07
2024-01-01 00:00:04.211,0.05,-0.09
2024-01-01 00:00:04.219,0.05,-0.08
2024-01-01 00:00:04.227,0.05,-0.1
2024-01-01 00:00:04.234,0.05,-0.13
2024-01-01 00:00:04.242,0.04,-0.1
2024-01-01 00:00:04.250,0.03,-0.12
2024-01-01 00:00:04.258,0.04,-0.13
2024-01-01 00:00:04.266,0.02,-0.15
2024-01-01 00:00:04.273,0.03,-0.12
2024-01-01 00:00:04.281,0.01,-0.14
2024-01-01 00:00:04.289,0.02,-0.15
2024-01-01 00:00:04.297,0.0,-0.14
2024-01-01 00:00:04.305,0.01,-0.14
2024-01-01 00:00:04.313,0.01,-0.15
2024-01-01 00:00:04.320,0.01,-0.15
2024-01-01 00:00:04.328,-0.01,-0.13
2024-01-01 00:00:04.336,-0.01,-0.14
2024-01-01 00:00:04.344,0.0,-0.15
2024-01-01 00:00:04.352,-0.02,-0.13
2024-01-01 00:00:04.359,-0.01,-0.13
2024-01-01 00:00:04.367,-0.01,-0.15
2024-01-01 00:00:04.375,-0.01,-0.17
2024-01-01 00:00:04.383,-0.02,-0.14
2024-01-01 00:00:04.391,-0.01,-0.14
2024-01-01 00:00:04.398,-0.02,-0.15
2024-01-01 00:00:04.406,-0.02,-0.12
2024-01-01 00:00:04.414,-0.02,-0.13
2024-01-01 00:00:04.422,-0.02,-0.12
2024-01-01 00:00:04.430,0.02,-0.1
2024-01-01 00:00:04.438,0.05,-0.05
2024-01-01 00:00:04.445,0.02,-0.01
2024-01-01 00:00:04.453,0.09,0.02
2024-01-01 00:00:04.461,0.1,0.15
2024-01-01 00:00:04.469,0.16,0.26
2024-01-01 00:00:04.477,0.07,0.21
2024-01-01 00:00:04.484,0.01,0.2
2024-01-01 00:00:04.492,-0.05,0.11
2024-01-01 00:00:04.500,-0.12,0.09
2024-01-01 00:00:04.508,-0.1,0.05
2024-01-01 00:00:04.516,-0.1,-0.04
2024-01-01 00:00:04.523,-0.08,-0.12
2024-01-01 00:00:04.531,-0.07,-0.16
2024-01-01 00:00:04.539,-0.09,-0.16
2024-01-01 00:00:04.547,-0.1,-0.13
2024-01-01 00:00:04.555,-0.09,-0.14
2024-01-01 00:00:04.563,-0.05,-0.33
2024-01-01 00:00:04.570,0.34,0.74
2024-01-01 00:00:04.578,0.58,3.52
2024-01-01 00:00:04.586,-0.42,5.11
2024-01-01 00:00:04.594,-1.84,5.11
2024-01-01 00:00:04.602,-1.8,1.86
2024-01-01 00:00:04.609,-1.22,-0.55
2024-01-01 00:00:04.617,-0.57,-0.39
2024-01-01 00:00:04.625,-0.22,-0.19
2024-01-01 00:00:04.633,-0.04,-0.26
2024-01-01 00:00:04.641,-0.03,-0.31
2024-01-01 00:00:04.648,-0.02,-0.33
2024-01-01 00:00:04.656,0.01,-0.31
2024-01-01 00:00:04.664,0.02,-0.31
2024-01-01 00:00:04.672,0.05,-0.34
2024-01-01 00:00:04.680,0.05,-0.34
2024-01-01 00:00:04.688,0.04,-0.31
2024-01-01 00:00:04.695,0.06,-0.32
2024-01-01 00:00:04.703,0.08,-0.34
2024-01-01 00:00:04.711,0.08,-0.3
2024-01-01 00:00:04.719,0.11,-0.3
2024-01-01 00:00:04.727,0.11,-0.3
2024-01-01 00:00:04.734,0.12,-0.32
2024-01-01 00:00:04.742,0.14,-0.28
2024-01-01 00:00:04.750,0.14,-0.28
2024-01-01 00:00:04.758,0.18,-0.29
2024-01-01 00:00:04.766,0.18,-0.28
2024-01-01 00:00:04.773,0.21,-0.28
2024-01-01 00:00:04.781,0.21,-0.3
2024-01-01 00:00:04.789,0.22,-0.33
2024-01-01 00:00:04.797,0.22,-0.32
2024-01-01 00:00:04.805,0.22,-0.35
2024-01-01 00:00:04.813,0.19,-0.4
2024-01-01 00:00:04.820,0.18,-0.42
2024-01-01 00:00:04.828,0.16,-0.43
2024-01-01 00:00:04.836,0.14,-0.47
2024-01-01 00:00:04.844,0.09,-0.46
2024-01-01 00:00:04.852,0.04,-0.38
2024-01-01 00:00:04.859,0.02,-0.31
2024-01-01 00:00:04.867,0.0,-0.24
2024-01-01 00:00:04.875,0.01,-0.15
2024-01-01 00:00:04.883,0.02,-0.09
2024-01-01 00:00:04.891,0.01,-0.08
2024-01-01 00:00:04.898,0.02,-0.06
2024-01-01 00:00:04.906,0.03,-0.02
2024-01-01 00:00:04.914,0.03,-0.03
2024-01-01 00:00:04.922,0.04,-0.04
2024-01-01 00:00:04.930,0.03,-0.04
2024-01-01 00:00:04.938,0.04,-0.02
2024-01-01 00:00:04.945,0.03,-0.04
2024-01-01 00:00:04.953,0.03,-0.07
2024-01-01 00:00:04.961,0.02,-0.04
2024-01-01 00:00:04.969,0.04,-0.05
2024-01-01 00:00:04.977,0.04,-0.08
2024-01-01 00:00:04.984,0.03,-0.09
2024-01-01 00:00:04.992,0.04,-0.07
2024-01-01 00:00:05.000,0.04,-0.09
2024-01-01 00:00:05.008,0.04,-0.12
2024-01-01 00:00:05.016,0.04,-0.1
2024-01-01 00:00:05.023,0.05,-0.09
2024-01-01 00:00:05.031,0.06,-0.13
2024-01-01 00:00:05.039,0.04,-0.14
2024-01-01 00:00:05.047,0.04,-0.13
2024-01-01 00:00:05.055,0.04,-0.15
2024-01-01 00:00:05.063,0.02,-0.16
2024-01-01 00:00:05.070,0.02,-0.14
2024-01-01 00:00:05.078,0.02,-0.13
2024-01-01 00:00:05.086,0.01,-0.16
2024-01-01 00:00:05.094,0.01,-0.18
2024-01-01 00:00:05.102,0.0,-0.15
2024-01-01 00:00:05.109,-0.01,-0.15
2024-01-01 00:00:05.117,-0.02,-0.18
2024-01-01 00:00:05.125,-0.02,-0.16
2024-01-01 00:00:05.133,-0.01,-0.16
2024-01-01 00:00:05.141,-0.02,-0.19
2024-01-01 00:00:05.148,-0.03,-0.19
2024-01-01 00:00:05.156,-0.02,-0.15
2024-01-01 00:00:05.164,-0.03,-0.18
2024-01-01 00:00:05.172,-0.03,-0.19
2024-01-01 00:00:05.180,-0.04,-0.18
2024-01-01 00:00:05.188,-0.03,-0.16
2024-01-01 00:00:05.195,-0.03,-0.17
2024-01-01 00:00:05.203,-0.04,-0.17
2024-01-01 00:00:05.211,-0.05,-0.14
2024-01-01 00:00:05.219,-0.05,-0.15
2024-01-01 00:00:05.227,-0.03,-0.15
2024-01-01 00:00:05.234,-0.04,-0.14
2024-01-01 00:00:05.242,0.01,-0.07
2024-01-01 00:00:05.250,0.03,-0.09
2024-01-01 00:00:05.258,0.01,-0.05
2024-01-01 00:00:05.266,0.06,0.02
2024-01-01 00:00:05.273,0.09,0.2
2024-01-01 00:00:05.281,0.14,0.21
2024-01-01 00:00:05.289,0.04,0.21
2024-01-01 00:00:05.297,-0.01,0.21
2024-01-01 00:00:05.305,-0.07,0.08
2024-01-01 00:00:05.313,-0.14,0.07
2024-01-01 00:00:05.320,-0.12,0.08
2024-01-01 00:00:05.328,-0.1,-0.03
2024-01-01 00:00:05.336,-0.08,-0.17
2024-01-01 00:00:05.344,-0.08,-0.19
2024-01-01 00:00:05.352,-0.1,-0.17
2024-01-01 00:00:05.359,-0.06,-0.15
2024-01-01 00:00:05.367,-0.1,-0.21
2024-01-01 00:00:05.375,-0.05,-0.28
2024-01-01 00:00:05.383,0.34,0.82
2024-01-01 00:00:05.391,0.59,3.62
2024-01-01 00:00:05.398,-0.41,5.11
2024-01-01 00:00:05.406,-1.79,5.11
2024-01-01 00:00:05.414,-1.75,1.88
2024-01-01 00:00:05.422,-1.16,-0.62
2024-01-01 00:00:05.430,-0.56,-0.42
2024-01-01 00:00:05.438,-0.21,-0.2
2024-01-01 00:00:05.445,-0.01,-0.3
2024-01-01 00:00:05.453,-0.01,-0.35
2024-01-01 00:00:05.461,0.01,-0.35
2024-01-01 00:00:05.469,0.04,-0.34
2024-01-01 00:00:05.477,0.05,-0.36
2024-01-01 00:00:05.484,0.07,-0.35
2024-01-01 00:00:05.492,0.09,-0.32
2024-01-01 00:00:05.500,0.08,-0.35
2024-01-01 00:00:05.508,0.09,-0.34
2024-01-01 00:00:05.516,0.09,-0.31
2024-01-01 00:00:05.523,0.1,-0.3
2024-01-01 00:00:05.531,0.11,-0.32
2024-01-01 00:00:05.539,0.13,-0.3
2024-01-01 00:00:05.547,0.13,-0.29
2024-01-01 00:00:05.555,0.14,-0.28
2024-01-01 00:00:05.563,0.16,-0.3
2024-01-01 00:00:05.570,0.16,-0.29
2024-01-01 00:00:05.578,0.19,-0.27
2024-01-01 00:00:05.586,0.18,-0.32
2024-01-01 00:00:05.594,0.2,-0.3
2024-01-01 00:00:05.602,0.21,-0.3
2024-01-01 00:00:05.609,0.21,-0.35
2024-01-01 00:00:05.617,0.19,-0.4
2024-01-01 00:00:05.625,0.17,-0.39
2024-01-01 00:00:05.633,0.16,-0.42
2024-01-01 00:00:05.641,0.15,-0.47
2024-01-01 00:00:05.648,0.12,-0.49
2024-01-01 00:00:05.656,0.09,-0.45
2024-01-01 00:00:05.664,0.05,-0.43
2024-01-01 00:00:05.672,0.03,-0.38
2024-01-01 00:00:05.680,0.01,-0.27
2024-01-01 00:00:05.688,0.02,-0.19
2024-01-01 00:00:05.695,0.02,-0.14
2024-01-01 00:00:05.703,0.02,-0.13
2024-01-01 00:00:05.711,0.04,-0.09
2024-01-01 00:00:05.719,0.03,-0.1
2024-01-01 00:00:05.727,0.03,-0.13
2024-01-01 00:00:05.734,0.02,-0.1
2024-01-01 00:00:05.742,0.05,-0.08
2024-01-01 00:00:05.750,0.04,-0.12
2024-01-01 00:00:05.758,0.04,-0.13
2024-01-01 00:00:05.766,0.04,-0.12
2024-01-01 00:00:05.773,0.04,-0.13
2024-01-01 00:00:05.781,0.04,-0.14
2024-01-01 00:00:05.789,0.04,-0.16
2024-01-01 00:00:05.797,0.06,-0.13
2024-01-01 00:00:05.805,0.06,-0.16
2024-01-01 00:00:05.813,0.07,-0.18
2024-01-01 00:00:05.820,0.05,-0.16
2024-01-01 00:00:05.828,0.07,-0.16
2024-01-01 00:00:05.836,0.07,-0.19
2024-01-01 00:00:05.844,0.06,-0.19
2024-01-01 00:00:05.852,0.06,-0.19
2024-01-01 00:00:05.859,0.07,-0.2
2024-01-01 00:00:05.867,0.05,-0.23
2024-01-01 00:00:05.875,0.06,-0.19
2024-01-01 00:00:05.883,0.03,-0.19
2024-01-01 00:00:05.891,0.02,-0.23
2024-01-01 00:00:05.898,0.02,-0.22
2024-01-01 00:00:05.906,0.03,-0.21
2024-01-01 00:00:05.914,0.02,-0.21
2024-01-01 00:00:05.922,0.01,-0.22
2024-01-01 00:00:05.930,0.02,-0.2
2024-01-01 00:00:05.938,0.01,-0.19
2024-01-01 00:00:05.945,0.0,-0.2
2024-01-01 00:00:05.953,0.0,-0.2
2024-01-01 00:00:05.961,0.0,-0.2
2024-01-01 00:00:05.969,0.01,-0.2
2024-01-01 00:00:05.977,-0.02,-0.24
2024-01-01 00:00:05.984,-0.01,-0.19
2024-01-01 00:00:05.992,-0.01,-0.19
2024-01-01 00:00:06.000,-0.02,-0.2
2024-01-01 00:00:06.008,-0.02,-0.2
2024-01-01 00:00:06.016,-0.02,-0.19
2024-01-01 00:00:06.023,-0.01,-0.21
2024-01-01 00:00:06.031,-0.02,-0.22
2024-01-01 00:00:06.039,-0.02,-0.18
2024-01-01 00:00:06.047,0.03,-0.15
2024-01-01 00:00:06.055,0.05,-0.16
2024-01-01 00:00:06.063,0.01,-0.13
2024-01-01 00:00:06.070,0.09,-0.04
2024-01-01 00:00:06.078,0.13,0.09
2024-01-01 00:00:06.086,0.14,0.16
2024-01-01 00:00:06.094,0.07,0.16
2024-01-01 00:00:06.102,0.02,0.16
2024-01-01 00:00:06.109,-0.05,0.01
2024-01-01 00:00:06.117,-0.11,-0.02
2024-01-01 00:00:06.125,-0.09,-0.01
2024-01-01 00:00:06.133,-0.09,-0.13
2024-01-01 00:00:06.141,-0.09,-0.27
2024-01-01 00:00:06.148,-0.1,-0.24
2024-01-01 00:00:06.156,-0.1,-0.25
2024-01-01 00:00:06.164,-0.09,-0.27
2024-01-01 00:00:06.172,-0.12,-0.31
2024-01-01 00:00:06.180,-0.06,-0.32
2024-01-01 00:00:06.188,0.26,0.81
2024-01-01 00:00:06.195,0.56,3.5
2024-01-01 00:00:06.203,-0.05,5.11
2024-01-01 00:00:06.211,-1.59,5.11
2024-01-01 00:00:06.219,-1.53,1.88
2024-01-01 00:00:06.227,-1.15,-0.71
2024-01-01 00:00:06.234,-0.62,-0.55
2024-01-01 00:00:06.242,-0.3,-0.28
2024-01-01 00:00:06.250,-0.04,-0.38
2024-01-01 00:00:06.258,-0.05,-0.39
2024-01-01 00:00:06.266,-0.03,-0.4
2024-01-01 00:00:06.273,0.0,-0.41
2024-01-01 00:00:06.281,0.03,-0.43
2024-01-01 00:00:06.289,0.02,-0.4
2024-01-01 00:00:06.297,0.04,-0.38
2024-01-01 00:00:06.305,0.06,-0.39
2024-01-01 00:00:06.313,0.08,-0.39
2024-01-01 00:00:06.320,0.07,-0.37
2024-01-01 00:00:06.328,0.09,-0.37
2024-01-01 00:00:06.336,0.1,-0.36
2024-01-01 00:00:06.344,0.09,-0.33
2024-01-01 00:00:06.352,0.13,-0.33
2024-01-01 00:00:06.359,0.13,-0.34
2024-01-01 00:00:06.367,0.15,-0.34
2024-01-01 00:00:06.375,0.14,-0.33
2024-01-01 00:00:06.383,0.16,-0.32
2024-01-01 00:00:06.391,0.18,-0.35
2024-01-01 00:00:06.398,0.18,-0.31
2024-01-01 00:00:06.406,0.19,-0.31
2024-01-01 00:00:06.414,0.19,-0.34
2024-01-01 00:00:06.422,0.19,-0.37
2024-01-01 00:00:06.430,0.17,-0.37
2024-01-01 00:00:06.438,0.17,-0.41
2024-01-01 00:00:06.445,0.16,-0.45
2024-01-01 00:00:06.453,0.13,-0.44
2024-01-01 00:00:06.461,0.12,-0.43
2024-01-01 00:00:06.469,0.09,-0.41
2024-01-01 00:00:06.477,0.06,-0.36
2024-01-01 00:00:06.484,0.03,-0.26
2024-01-01 00:00:06.492,0.03,-0.22
2024-01-01 00:00:06.500,0.02,-0.2
2024-01-01 00:00:06.508,0.01,-0.15
2024-01-01 00:00:06.516,0.04,-0.15
2024-01-01 00:00:06.523,0.03,-0.16
2024-01-01 00:00:06.531,0.03,-0.17
2024-01-01 00:00:06.539,0.04,-0.16
2024-01-01 00:00:06.547,0.03,-0.17
2024-01-01 00:00:06.555,0.05,-0.19
2024-01-01 00:00:06.563,0.05,-0.16
2024-01-01 00:00:06.570,0.06,-0.17
2024-01-01 00:00:06.578,0.06,-0.2
2024-01-01 00:00:06.586,0.05,-0.22
2024-01-01 00:00:06.594,0.07,-0.2
2024-01-01 00:00:06.602,0.05,-0.21
2024-01-01 00:00:06.609,0.05,-0.22
2024-01-01 00:00:06.617,0.05,-0.19
2024-01-01 00:00:06.625,0.06,-0.2
2024-01-01 00:00:06.633,0.05,-0.23
2024-01-01 00:00:06.641,0.04,-0.25
2024-01-01 00:00:06.648,0.04,-0.2
2024-01-01 00:00:06.656,0.04,-0.22
2024-01-01 00:00:06.664,0.02,-0.23
2024-01-01 00:00:06.672,0.02,-0.22
2024-01-01 00:00:06.680,0.03,-0.22
2024-01-01 00:00:06.688,0.02,-0.24
2024-01-01 00:00:06.695,0.01,-0.23
2024-01-01 00:00:06.703,0.02,-0.22
2024-01-01 00:00:06.711,0.01,-0.22
2024-01-01 00:00:06.719,0.02,-0.24
2024-01-01 00:00:06.727,0.01,-0.21
2024-01-01 00:00:06.734,0.01,-0.2
2024-01-01 00:00:06.742,0.0,-0.23
2024-01-01 00:00:06.750,0.01,-0.24
2024-01-01 00:00:06.758,0.0,-0.22
2024-01-01 00:00:06.766,0.01,-0.23
2024-01-01 00:00:06.773,0.01,-0.24
2024-01-01 00:00:06.781,0.0,-0.21
2024-01-01 00:00:06.789,0.0,-0.21
2024-01-01 00:00:06.797,0.0,-0.23
2024-01-01 00:00:06.805,0.0,-0.24
2024-01-01 00:00:06.813,-0.01,-0.21
2024-01-01 00:00:06.820,0.0,-0.21
2024-01-01 00:00:06.828,0.01,-0.24
2024-01-01 00:00:06.836,0.04,-0.17
2024-01-01 00:00:06.844,0.09,-0.13
2024-01-01 00:00:06.852,0.05,-0.1
2024-01-01 00:00:06.859,0.13,-0.07
2024-01-01 00:00:06.867,0.1,0.06
2024-01-01 00:00:06.875,0.2,0.22
2024-01-01 00:00:06.883,0.1,0.14
2024-01-01 00:00:06.891,0.05,0.18
2024-01-01 00:00:06.898,0.0,0.1
2024-01-01 00:00:06.906,-0.11,0.02
2024-01-01 00:00:06.914,-0.1,0.01
2024-01-01 00:00:06.922,-0.11,-0.02
2024-01-01 00:00:06.930,-0.08,-0.16
2024-01-01 00:00:06.938,-0.06,-0.21
2024-01-01 00:00:06.945,-0.09,-0.22
2024-01-01 00:00:06.953,-0.09,-0.18
2024-01-01 00:00:06.961,-0.08,-0.2
2024-01-01 00:00:06.969,-0.07,-0.43
2024-01-01 00:00:06.977,0.25,0.34
2024-01-01 00:00:06.984,0.5,2.53
2024-01-01 00:00:06.992,0.43,5.11
2024-01-01 00:00:07.000,-1.72,5.11
2024-01-01 00:00:07.008,-1.89,3.18
2024-01-01 00:00:07.016,-1.19,-0.63
2024-01-01 00:00:07.023,-0.79,-0.42
2024-01-01 00:00:07.031,-0.35,-0.23
2024-01-01 00:00:07.039,-0.02,-0.27
2024-01-01 00:00:07.047,0.0,-0.33
2024-01-01 00:00:07.055,0.0,-0.33
2024-01-01 00:00:07.063,0.02,-0.32
2024-01-01 00:00:07.070,0.05,-0.32
2024-01-01 00:00:07.078,0.06,-0.33
2024-01-01 00:00:07.086,0.07,-0.31
2024-01-01 00:00:07.094,0.1,-0.31
2024-01-01 00:00:07.102,0.11,-0.31
2024-01-01 00:00:07.109,0.11,-0.31
2024-01-01 00:00:07.117,0.12,-0.28
2024-01-01 00:00:07.125,0.14,-0.29
2024-01-01 00:00:07.133,0.14,-0.3
2024-01-01 00:00:07.141,0.16,-0.27
2024-01-01 00:00:07.148,0.18,-0.27
2024-01-01 00:00:07.156,0.19,-0.29
2024-01-01 00:00:07.164,0.2,-0.29
2024-01-01 00:00:07.172,0.22,-0.26
2024-01-01 00:00:07.180,0.25,-0.26
2024-01-01 00:00:07.188,0.25,-0.29
2024-01-01 00:00:07.195,0.26,-0.28
2024-01-01 00:00:07.203,0.26,-0.3
2024-01-01 00:00:07.211,0.26,-0.33
2024-01-01 00:00:07.219,0.24,-0.37
2024-01-01 00:00:07.227,0.22,-0.37
2024-01-01 00:00:07.234,0.22,-0.41
2024-01-01 00:00:07.242,0.17,-0.45
2024-01-01 00:00:07.250,0.12,-0.42
2024-01-01 00:00:07.258,0.08,-0.39
2024-01-01 00:00:07.266,0.05,-0.33
2024-01-01 00:00:07.273,0.02,-0.27
2024-01-01 00:00:07.281,0.01,-0.14
2024-01-01 00:00:07.289,0.01,-0.09
2024-01-01 00:00:07.297,0.03,-0.06
2024-01-01 00:00:07.305,0.03,-0.04
2024-01-01 00:00:07.313,0.04,-0.02
2024-01-01 00:00:07.320,0.04,-0.04
2024-01-01 00:00:07.328,0.05,-0.04
2024-01-01 00:00:07.336,0.04,-0.02
2024-01-01 00:00:07.344,0.06,-0.02
2024-01-01 00:00:07.352,0.05,-0.05
2024-01-01 00:00:07.359,0.04,-0.03
2024-01-01 00:00:07.367,0.04,-0.03
2024-01-01 00:00:07.375,0.05,-0.06
2024-01-01 00:00:07.383,0.04,-0.08
2024-01-01 00:00:07.391,0.04,-0.06
2024-01-01 00:00:07.398,0.05,-0.07
2024-01-01 00:00:07.406,0.05,-0.09
2024-01-01 00:00:07.414,0.04,-0.1
2024-01-01 00:00:07.422,0.05,-0.09
2024-01-01 00:00:07.430,0.04,-0.11
2024-01-01 00:00:07.438,0.04,-0.13
2024-01-01 00:00:07.445,0.04,-0.1
2024-01-01 00:00:07.453,0.04,-0.11
2024-01-01 00:00:07.461,0.03,-0.13
2024-01-01 00:00:07.469,0.02,-0.14
2024-01-01 00:00:07.477,0.01,-0.13
2024-01-01 00:00:07.484,0.0,-0.13
2024-01-01 00:00:07.492,-0.01,-0.15
2024-01-01 00:00:07.500,-0.01,-0.14
2024-01-01 00:00:07.508,-0.01,-0.14
2024-01-01 00:00:07.516,-0.01,-0.16
2024-01-01 00:00:07.523,-0.02,-0.18
2024-01-01 00:00:07.531,-0.02,-0.15
2024-01-01 00:00:07.539,-0.03,-0.15
2024-01-01 00:00:07.547,-0.02,-0.18
2024-01-01 00:00:07.555,-0.04,-0.16
2024-01-01 00:00:07.563,-0.04,-0.16
2024-01-01 00:00:07.570,-0.04,-0.18
2024-01-01 00:00:07.578,-0.05,-0.19
2024-01-01 00:00:07.586,-0.05,-0.14
2024-01-01 00:00:07.594,-0.05,-0.15
2024-01-01 00:00:07.602,-0.05,-0.15
2024-01-01 00:00:07.609,-0.07,-0.13
2024-01-01 00:00:07.617,-0.06,-0.12
2024-01-01 00:00:07.625,-0.04,-0.09
2024-01-01 00:00:07.633,0.02,-0.08
2024-01-01 00:00:07.641,-0.02,-0.01
2024-01-01 00:00:07.648,0.05,0.04
2024-01-01 00:00:07.656,0.06,0.15
2024-01-01 00:00:07.664,0.13,0.28
2024-01-01 00:00:07.672,0.03,0.24
2024-01-01 00:00:07.680,-0.02,0.24
2024-01-01 00:00:07.688,-0.07,0.11
2024-01-01 00:00:07.695,-0.18,0.1
2024-01-01 00:00:07.703,-0.16,0.11
2024-01-01 00:00:07.711,-0.15,0.0
2024-01-01 00:00:07.719,-0.13,-0.13
2024-01-01 00:00:07.727,-0.13,-0.14
2024-01-01 00:00:07.734,-0.13,-0.14
2024-01-01 00:00:07.742,-0.14,-0.14
2024-01-01 00:00:07.750,-0.13,-0.12
2024-01-01 00:00:07.758,-0.12,-0.33
2024-01-01 00:00:07.766,0.21,0.45
2024-01-01 00:00:07.773,0.44,2.54
2024-01-01 00:00:07.781,0.55,5.11
2024-01-01 00:00:07.789,-1.75,5.11
2024-01-01 00:00:07.797,-1.93,3.43
2024-01-01 00:00:07.805,-1.22,-0.51
2024-01-01 00:00:07.813,-0.94,-0.32
2024-01-01 00:00:07.820,-0.38,-0.24
2024-01-01 00:00:07.828,-0.04,-0.25
2024-01-01 00:00:07.836,-0.05,-0.27
2024-01-01 00:00:07.844,-0.02,-0.3
2024-01-01 00:00:07.852,0.01,-0.31
2024-01-01 00:00:07.859,0.02,-0.31
2024-01-01 00:00:07.867,0.02,-0.3
2024-01-01 00:00:07.875,0.05,-0.31
2024-01-01 00:00:07.883,0.05,-0.32
2024-01-01 00:00:07.891,0.06,-0.27
2024-01-01 00:00:07.898,0.08,-0.26
2024-01-01 00:00:07.906,0.09,-0.28
2024-01-01 00:00:07.914,0.09,-0.27
2024-01-01 00:00:07.922,0.1,-0.24
2024-01-01 00:00:07.930,0.11,-0.26
2024-01-01 00:00:07.938,0.13,-0.26
2024-01-01 00:00:07.945,0.14,-0.24
2024-01-01 00:00:07.953,0.16,-0.23
2024-01-01 00:00:07.961,0.18,-0.25
2024-01-01 00:00:07.969,0.2,-0.26
2024-01-01 00:00:07.977,0.21,-0.24
2024-01-01 00:00:07.984,0.23,-0.27
2024-01-01 00:00:07.992,0.23,-0.3
2024-01-01 00:00:08.000,0.22,-0.29
2024-01-01 00:00:08.008,0.21,-0.33
2024-01-01 00:00:08.016,0.18,-0.39
2024-01-01 00:00:08.023,0.15,-0.42
2024-01-01 00:00:08.031,0.13,-0.42
2024-01-01 00:00:08.039,0.1,-0.42
2024-01-01 00:00:08.047,0.05,-0.4
2024-01-01 00:00:08.055,0.01,-0.32
2024-01-01 00:00:08.063,-0.01,-0.23
2024-01-01 00:00:08.070,-0.01,-0.17
2024-01-01 00:00:08.078,-0.01,-0.13
2024-01-01 00:00:08.086,-0.02,-0.04
2024-01-01 00:00:08.094,0.01,-0.03
2024-01-01 00:00:08.102,0.02,-0.03
2024-01-01 00:00:08.109,0.04,-0.02
2024-01-01 00:00:08.117,0.04,-0.02
2024-01-01 00:00:08.125,0.04,-0.04
2024-01-01 00:00:08.133,0.04,-0.06
2024-01-01 00:00:08.141,0.04,-0.03
2024-01-01 00:00:08.148,0.04,-0.02
2024-01-01 00:00:08.156,0.04,-0.05
2024-01-01 00:00:08.164,0.03,-0.06
2024-01-01 00:00:08.172,0.05,-0.04
2024-01-01 00:00:08.180,0.05,-0.06
2024-01-01 00:00:08.188,0.04,-0.08
2024-01-01 00:00:08.195,0.05,-0.06
2024-01-01 00:00:08.203,0.08,-0.05
2024-01-01 00:00:08.211,0.07,-0.08
2024-01-01 00:00:08.219,0.08,-0.1
2024-01-01 00:00:08.227,0.08,-0.07
2024-01-01 00:00:08.234,0.08,-0.08
2024-01-01 00:00:08.242,0.07,-0.11
2024-01-01 00:00:08.250,0.06,-0.1
2024-01-01 00:00:08.258,0.06,-0.09
2024-01-01 00:00:08.266,0.07,-0.11
2024-01-01 00:00:08.273,0.05,-0.12
2024-01-01 00:00:08.281,0.04,-0.09
2024-01-01 00:00:08.289,0.04,-0.11
2024-01-01 00:00:08.297,0.04,-0.15
2024-01-01 00:00:08.305,0.02,-0.14
2024-01-01 00:00:08.313,0.05,-0.14
2024-01-01 00:00:08.320,0.03,-0.12
2024-01-01 00:00:08.328,0.02,-0.15
2024-01-01 00:00:08.336,0.0,-0.11
2024-01-01 00:00:08.344,0.02,-0.11
2024-01-01 00:00:08.352,0.01,-0.14
2024-01-01 00:00:08.359,-0.01,-0.13
2024-01-01 00:00:08.367,0.0,-0.1
2024-01-01 00:00:08.375,0.0,-0.12
2024-01-01 00:00:08.383,-0.03,-0.15
2024-01-01 00:00:08.391,-0.02,-0.1
2024-01-01 00:00:08.398,-0.03,-0.11
2024-01-01 00:00:08.406,-0.02,-0.12
2024-01-01 00:00:08.414,-0.03,-0.13
2024-01-01 00:00:08.422,-0.02,-0.09
2024-01-01 00:00:08.430,-0.01,-0.09
2024-01-01 00:00:08.438,0.03,-0.05
2024-01-01 00:00:08.445,0.01,-0.05
2024-01-01 00:00:08.453,0.04,0.01
2024-01-01 00:00:08.461,0.07,0.03
2024-01-01 00:00:08.469,0.14,0.26
2024-01-01 00:00:08.477,0.1,0.23
2024-01-01 00:00:08.484,0.04,0.24
2024-01-01 00:00:08.492,-0.01,0.18
2024-01-01 00:00:08.500,-0.13,0.09
2024-01-01 00:00:08.508,-0.14,0.08
2024-01-01 00:00:08.516,-0.12,0.04
2024-01-01 00:00:08.523,-0.12,-0.12
2024-01-01 00:00:08.531,-0.12,-0.15
2024-01-01 00:00:08.539,-0.11,-0.17
2024-01-01 00:00:08.547,-0.11,-0.18
2024-01-01 00:00:08.555,-0.1,-0.16
2024-01-01 00:00:08.563,-0.11,-0.25
2024-01-01 00:00:08.570,0.03,-0.08
2024-01-01 00:00:08.578,0.34,1.24
2024-01-01 00:00:08.586,0.71,4.39
2024-01-01 00:00:08.594,-0.98,5.11
2024-01-01 00:00:08.602,-1.84,4.78
2024-01-01 00:00:08.609,-1.58,0.74
2024-01-01 00:00:08.617,-1.26,-0.42
2024-01-01 00:00:08.625,-0.52,-0.35
2024-01-01 00:00:08.633,-0.17,-0.21
2024-01-01 00:00:08.641,-0.06,-0.27
2024-01-01 00:00:08.648,-0.05,-0.29
2024-01-01 00:00:08.656,-0.03,-0.32
2024-01-01 00:00:08.664,-0.01,-0.32
2024-01-01 00:00:08.672,0.0,-0.29
2024-01-01 00:00:08.680,0.02,-0.29
2024-01-01 00:00:08.688,0.04,-0.29
2024-01-01 00:00:08.695,0.04,-0.28
2024-01-01 00:00:08.703,0.07,-0.28
2024-01-01 00:00:08.711,0.06,-0.28
2024-01-01 00:00:08.719,0.08,-0.29
2024-01-01 00:00:08.727,0.1,-0.25
2024-01-01 00:00:08.734,0.11,-0.26
2024-01-01 00:00:08.742,0.12,-0.26
2024-01-01 00:00:08.750,0.13,-0.26
2024-01-01 00:00:08.758,0.15,-0.25
2024-01-01 00:00:08.766,0.15,-0.27
2024-01-01 00:00:08.773,0.18,-0.28
2024-01-01 00:00:08.781,0.18,-0.25
2024-01-01 00:00:08.789,0.2,-0.28
2024-01-01 00:00:08.797,0.2,-0.31
2024-01-01 00:00:08.805,0.19,-0.33
2024-01-01 00:00:08.813,0.2,-0.35
2024-01-01 00:00:08.820,0.18,-0.4
2024-01-01 00:00:08.828,0.16,-0.45
2024-01-01 00:00:08.836,0.13,-0.44
2024-01-01 00:00:08.844,0.12,-0.48
2024-01-01 00:00:08.852,0.07,-0.46
2024-01-01 00:00:08.859,0.03,-0.41
2024-01-01 00:00:08.867,0.0,-0.3
2024-01-01 00:00:08.875,-0.01,-0.23
2024-01-01 00:00:08.883,-0.02,-0.17
2024-01-01 00:00:08.891,-0.01,-0.09
2024-01-01 00:00:08.898,0.0,-0.06
2024-01-01 00:00:08.906,0.02,-0.07
2024-01-01 00:00:08.914,0.01,-0.05
2024-01-01 00:00:08.922,0.03,-0.04
2024-01-01 00:00:08.930,0.03,-0.07
2024-01-01 00:00:08.938,0.03,-0.08
2024-01-01 00:00:08.945,0.04,-0.05
2024-01-01 00:00:08.953,0.05,-0.04
2024-01-01 00:00:08.961,0.05,-0.06
2024-01-01 00:00:08.969,0.04,-0.08
2024-01-01 00:00:08.977,0.05,-0.07
2024-01-01 00:00:08.984,0.04,-0.09
2024-01-01 00:00:08.992,0.07,-0.1
2024-01-01 00:00:09.000,0.06,-0.07
2024-01-01 00:00:09.008,0.07,-0.1
2024-01-01 00:00:09.016,0.06,-0.11
2024-01-01 00:00:09.023,0.06,-0.11
2024-01-01 00:00:09.031,0.06,-0.09
2024-01-01 00:00:09.039,0.06,-0.13
2024-01-01 00:00:09.047,0.04,-0.14
2024-01-01 00:00:09.055,0.04,-0.12
2024-01-01 00:00:09.063,0.04,-0.11
2024-01-01 00:00:09.070,0.04,-0.13
2024-01-01 00:00:09.078,0.03,-0.16
2024-01-01 00:00:09.086,0.0,-0.12
2024-01-01 00:00:09.094,0.02,-0.15
2024-01-01 00:00:09.102,0.0,-0.17
2024-01-01 00:00:09.109,-0.01,-0.15
2024-01-01 00:00:09.117,0.0,-0.14
2024-01-01 00:00:09.125,0.01,-0.16
2024-01-01 00:00:09.133,-0.01,-0.17
2024-01-01 00:00:09.141,-0.01,-0.14
2024-01-01 00:00:09.148,-0.02,-0.13
2024-01-01 00:00:09.156,-0.02,-0.17
2024-01-01 00:00:09.164,-0.02,-0.16
2024-01-01 00:00:09.172,-0.04,-0.14
2024-01-01 00:00:09.180,-0.02,-0.16
2024-01-01 00:00:09.188,-0.02,-0.18
2024-01-01 00:00:09.195,-0.03,-0.14
2024-01-01 00:00:09.203,-0.02,-0.15
2024-01-01 00:00:09.211,-0.03,-0.17
2024-01-01 00:00:09.219,-0.04,-0.17
2024-01-01 00:00:09.227,-0.03,-0.14
2024-01-01 00:00:09.234,0.0,-0.1
2024-01-01 00:00:09.242,0.04,-0.12
2024-01-01 00:00:09.250,0.0,-0.05
2024-01-01 00:00:09.258,0.08,0.0
2024-01-01 00:00:09.266,0.06,0.08
2024-01-01 00:00:09.273,0.16,0.26
2024-01-01 00:00:09.281,0.08,0.2
2024-01-01 00:00:09.289,0.03,0.21
2024-01-01 00:00:09.297,-0.01,0.11
2024-01-01 00:00:09.305,-0.15,0.08
2024-01-01 00:00:09.313,-0.1,0.06
2024-01-01 00:00:09.320,-0.11,-0.02
2024-01-01 00:00:09.328,-0.1,-0.18
2024-01-01 00:00:09.336,-0.08,-0.16
2024-01-01 00:00:09.344,-0.11,-0.16
2024-01-01 00:00:09.352,-0.09,-0.19
2024-01-01 00:00:09.359,-0.09,-0.15
2024-01-01 00:00:09.367,-0.09,-0.32
2024-01-01 00:00:09.375,0.23,0.5
2024-01-01 00:00:09.383,0.49,2.71
2024-01-01 00:00:09.391,0.6,5.11
2024-01-01 00:00:09.398,-1.55,5.11
2024-01-01 00:00:09.406,-1.7,3.29
2024-01-01 00:00:09.414,-1.11,-0.63
2024-01-01 00:00:09.422,-0.8,-0.38
2024-01-01 00:00:09.430,-0.42,-0.25
2024-01-01 00:00:09.438,-0.04,-0.27
2024-01-01 00:00:09.445,-0.05,-0.32
2024-01-01 00:00:09.453,-0.01,-0.32
2024-01-01 00:00:09.461,0.01,-0.34
2024-01-01 00:00:09.469,0.02,-0.34
2024-01-01 00:00:09.477,0.03,-0.32
2024-01-01 00:00:09.484,0.04,-0.33
2024-01-01 00:00:09.492,0.07,-0.33
2024-01-01 00:00:09.500,0.06,-0.31
2024-01-01 00:00:09.508,0.07,-0.31
2024-01-01 00:00:09.516,0.09,-0.32
2024-01-01 00:00:09.523,0.08,-0.3
2024-01-01 00:00:09.531,0.09,-0.29
2024-01-01 00:00:09.539,0.1,-0.26
2024-01-01 00:00:09.547,0.11,-0.29
2024-01-01 00:00:09.555,0.11,-0.27
2024-01-01 00:00:09.563,0.14,-0.27
2024-01-01 00:00:09.570,0.14,-0.28
2024-01-01 00:00:09.578,0.15,-0.3
2024-01-01 00:00:09.586,0.14,-0.25
2024-01-01 00:00:09.594,0.14,-0.28
2024-01-01 00:00:09.602,0.14,-0.3
2024-01-01 00:00:09.609,0.14,-0.31
2024-01-01 00:00:09.617,0.13,-0.33
2024-01-01 00:00:09.625,0.11,-0.37
2024-01-01 00:00:09.633,0.09,-0.41
2024-01-01 00:00:09.641,0.07,-0.4
2024-01-01 00:00:09.648,0.06,-0.42
2024-01-01 00:00:09.656,0.02,-0.39
2024-01-01 00:00:09.664,0.02,-0.35
2024-01-01 00:00:09.672,0.01,-0.28
2024-01-01 00:00:09.680,-0.01,-0.21
2024-01-01 00:00:09.688,-0.03,-0.17
2024-01-01 00:00:09.695,-0.02,-0.11
2024-01-01 00:00:09.703,-0.02,-0.08
2024-01-01 00:00:09.711,0.01,-0.09
2024-01-01 00:00:09.719,-0.01,-0.1
2024-01-01 00:00:09.727,0.0,-0.09
2024-01-01 00:00:09.734,-0.01,-0.1
2024-01-01 00:00:09.742,-0.01,-0.14
2024-01-01 00:00:09.750,-0.01,-0.09
2024-01-01 00:00:09.758,-0.01,-0.14
2024-01-01 00:00:09.766,-0.01,-0.13
2024-01-01 00:00:09.773,-0.01,-0.17
2024-01-01 00:00:09.781,-0.02,-0.12
2024-01-01 00:00:09.789,-0.01,-0.18
2024-01-01 00:00:09.797,-0.01,-0.18
2024-01-01 00:00:09.805,-0.02,-0.17
2024-01-01 00:00:09.813,0.0,-0.15
2024-01-01 00:00:09.820,0.01,-0.19
2024-01-01 00:00:09.828,-0.01,-0.19
2024-01-01 00:00:09.836,-0.02,-0.16
2024-01-01 00:00:09.844,-0.03,-0.18
2024-01-01 00:00:09.852,-0.01,-0.21
2024-01-01 00:00:09.859,-0.02,-0.16
2024-01-01 00:00:09.867,-0.03,-0.18
2024-01-01 00:00:09.875,-0.02,-0.21
2024-01-01 00:00:09.883,-0.01,-0.24
2024-01-01 00:00:09.891,-0.02,-0.21
2024-01-01 00:00:09.898,-0.02,-0.21
2024-01-01 00:00:09.906,-0.02,-0.22
2024-01-01 00:00:09.914,-0.03,-0.18
2024-01-01 00:00:09.922,-0.02,-0.19
2024-01-01 00:00:09.930,-0.02,-0.2
2024-01-01 00:00:09.938,-0.04,-0.21
2024-01-01 00:00:09.945,-0.04,-0.21
2024-01-01 00:00:09.953,-0.03,-0.2
2024-01-01 00:00:09.961,-0.03,-0.23
2024-01-01 00:00:09.969,-0.03,-0.22
2024-01-01 00:00:09.977,-0.04,-0.21
2024-01-01 00:00:09.984,-0.04,-0.25
2024-01-01 00:00:09.992,-0.05,-0.25
2024-01-01 00:00:10.000,-0.04,-0.22
2024-01-01 00:00:10.008,-0.04,-0.23
2024-01-01 00:00:10.016,-0.03,-0.23
2024-01-01 00:00:10.023,-0.03,-0.21
2024-01-01 00:00:10.031,0.03,-0.17
2024-01-01 00:00:10.039,-0.01,-0.17
2024-01-01 00:00:10.047,0.06,-0.13
2024-01-01 00:00:10.055,0.04,-0.03
2024-01-01 00:00:10.063,0.15,0.16
2024-01-01 00:00:10.070,0.09,0.07
2024-01-01 00:00:10.078,0.02,0.1
2024-01-01 00:00:10.086,-0.02,0.06
2024-01-01 00:00:10.094,-0.12,-0.04
2024-01-01 00:00:10.102,-0.13,-0.07
2024-01-01 00:00:10.109,-0.13,-0.1
2024-01-01 00:00:10.117,-0.1,-0.22
2024-01-01 00:00:10.125,-0.11,-0.29
2024-01-01 00:00:10.133,-0.12,-0.3
2024-01-01 00:00:10.141,-0.13,-0.27
2024-01-01 00:00:10.148,-0.11,-0.26
2024-01-01 00:00:10.156,-0.12,-0.41
2024-01-01 00:00:10.164,0.15,0.21
2024-01-01 00:00:10.172,0.44,1.89
2024-01-01 00:00:10.180,0.73,5.08
2024-01-01 00:00:10.188,-1.12,5.11
2024-01-01 00:00:10.195,-1.58,4.09
2024-01-01 00:00:10.203,-1.23,-0.39
2024-01-01 00:00:10.211,-0.9,-0.46
2024-01-01 00:00:10.219,-0.54,-0.4
2024-01-01 00:00:10.227,-0.09,-0.27
2024-01-01 00:00:10.234,-0.06,-0.38
2024-01-01 00:00:10.242,-0.05,-0.4
2024-01-01 00:00:10.250,-0.02,-0.37
2024-01-01 00:00:10.258,0.01,-0.38
2024-01-01 00:00:10.266,0.03,-0.38
2024-01-01 00:00:10.273,0.04,-0.38
2024-01-01 00:00:10.281,0.06,-0.36
2024-01-01 00:00:10.289,0.05,-0.36
2024-01-01 00:00:10.297,0.08,-0.38
2024-01-01 00:00:10.305,0.08,-0.34
2024-01-01 00:00:10.313,0.1,-0.33
2024-01-01 00:00:10.320,0.12,-0.34
2024-01-01 00:00:10.328,0.13,-0.33
2024-01-01 00:00:10.336,0.14,-0.3
2024-01-01 00:00:10.344,0.18,-0.31
2024-01-01 00:00:10.352,0.18,-0.33
2024-01-01 00:00:10.359,0.19,-0.29
2024-01-01 00:00:10.367,0.23,-0.3
2024-01-01 00:00:10.375,0.25,-0.31
2024-01-01 00:00:10.383,0.25,-0.33
2024-01-01 00:00:10.391,0.26,-0.32
2024-01-01 00:00:10.398,0.27,-0.35
2024-01-01 00:00:10.406,0.25,-0.39
2024-01-01 00:00:10.414,0.24,-0.4
2024-01-01 00:00:10.422,0.22,-0.43
2024-01-01 00:00:10.430,0.2,-0.48
2024-01-01 00:00:10.438,0.15,-0.49
2024-01-01 00:00:10.445,0.1,-0.45
2024-01-01 00:00:10.453,0.08,-0.4
2024-01-01 00:00:10.461,0.05,-0.34
2024-01-01 00:00:10.469,0.04,-0.24
2024-01-01 00:00:10.477,0.03,-0.17
2024-01-01 00:00:10.484,0.03,-0.15
2024-01-01 00:00:10.492,0.03,-0.15
2024-01-01 00:00:10.500,0.04,-0.11
2024-01-01 00:00:10.508,0.04,-0.1
2024-01-01 00:00:10.516,0.05,-0.11
2024-01-01 00:00:10.523,0.05,-0.1
2024-01-01 00:00:10.531,0.06,-0.1
2024-01-01 00:00:10.539,0.05,-0.11
2024-01-01 00:00:10.547,0.07,-0.13
2024-01-01 00:00:10.555,0.05,-0.11
2024-01-01 00:00:10.563,0.08,-0.11
2024-01-01 00:00:10.570,0.07,-0.14
2024-01-01 00:00:10.578,0.07,-0.15
2024-01-01 00:00:10.586,0.08,-0.12
2024-01-01 00:00:10.594,0.07,-0.15
2024-01-01 00:00:10.602,0.07,-0.17
2024-01-01 00:00:10.609,0.07,-0.14
2024-01-01 00:00:10.617,0.07,-0.15
2024-01-01 00:00:10.625,0.06,-0.17
2024-01-01 00:00:10.633,0.05,-0.19
2024-01-01 00:00:10.641,0.05,-0.16
2024-01-01 00:00:10.648,0.05,-0.18
2024-01-01 00:00:10.656,0.04,-0.19
2024-01-01 00:00:10.664,0.03,-0.17
2024-01-01 00:00:10.672,0.05,-0.18
2024-01-01 00:00:10.680,0.03,-0.2
2024-01-01 00:00:10.688,0.03,-0.21
2024-01-01 00:00:10.695,0.02,-0.19
2024-01-01 00:00:10.703,0.02,-0.2
2024-01-01 00:00:10.711,0.02,-0.23
2024-01-01 00:00:10.719,0.02,-0.2
2024-01-01 00:00:10.727,0.03,-0.21
2024-01-01 00:00:10.734,0.03,-0.21
2024-01-01 00:00:10.742,0.02,-0.22
2024-01-01 00:00:10.750,0.02,-0.19
2024-01-01 00:00:10.758,0.02,-0.2
2024-01-01 00:00:10.766,0.01,-0.22
2024-01-01 00:00:10.773,0.01,-0.2
2024-01-01 00:00:10.781,0.01,-0.19
2024-01-01 00:00:10.789,0.01,-0.19
2024-01-01 00:00:10.797,0.01,-0.21
2024-01-01 00:00:10.805,0.0,-0.19
2024-01-01 00:00:10.813,0.0,-0.18
2024-01-01 00:00:10.820,0.0,-0.21
2024-01-01 00:00:10.828,-0.01,-0.19
2024-01-01 00:00:10.836,0.0,-0.17
2024-01-01 00:00:10.844,0.02,-0.14
2024-01-01 00:00:10.852,0.06,-0.11
2024-01-01 00:00:10.859,0.05,-0.07
2024-01-01 00:00:10.867,0.08,-0.03
2024-01-01 00:00:10.875,0.1,0.02
2024-01-01 00:00:10.883,0.18,0.24
2024-01-01 00:00:10.891,0.13,0.2
2024-01-01 00:00:10.898,0.07,0.21
2024-01-01 00:00:10.906,0.01,0.15
2024-01-01 00:00:10.914,-0.1,0.08
2024-01-01 00:00:10.922,-0.1,0.08
2024-01-01 00:00:10.930,-0.09,0.03
2024-01-01 00:00:10.938,-0.08,-0.1
2024-01-01 00:00:10.945,-0.08,-0.15
2024-01-01 00:00:10.953,-0.06,-0.19
2024-01-01 00:00:10.961,-0.09,-0.18
2024-01-01 00:00:10.969,-0.08,-0.15
2024-01-01 00:00:10.977,-0.07,-0.28
2024-01-01 00:00:10.984,0.11,-0.11
2024-01-01 00:00:10.992,0.42,1.3
2024-01-01 00:00:11.000,0.82,4.51
2024-01-01 00:00:11.008,-1.3,5.11
2024-01-01 00:00:11.016,-1.87,4.61
2024-01-01 00:00:11.023,-1.53,0.55
2024-01-01 00:00:11.031,-1.22,-0.45
2024-01-01 00:00:11.039,-0.43,-0.36
2024-01-01 00:00:11.047,-0.07,-0.26
2024-01-01 00:00:11.055,-0.02,-0.3
2024-01-01 00:00:11.063,0.01,-0.33
2024-01-01 00:00:11.070,0.02,-0.34
2024-01-01 00:00:11.078,0.03,-0.36
2024-01-01 00:00:11.086,0.06,-0.33
2024-01-01 00:00:11.094,0.08,-0.34
2024-01-01 00:00:11.102,0.09,-0.35
2024-01-01 00:00:11.109,0.09,-0.31
2024-01-01 00:00:11.117,0.11,-0.3
2024-01-01 00:00:11.125,0.13,-0.31
2024-01-01 00:00:11.133,0.14,-0.31
2024-01-01 00:00:11.141,0.14,-0.28
2024-01-01 00:00:11.148,0.17,-0.29
2024-01-01 00:00:11.156,0.16,-0.31
2024-01-01 00:00:11.164,0.18,-0.28
2024-01-01 00:00:11.172,0.2,-0.27
2024-01-01 00:00:11.180,0.21,-0.29
2024-01-01 00:00:11.188,0.23,-0.29
2024-01-01 00:00:11.195,0.23,-0.26
2024-01-01 00:00:11.203,0.27,-0.3
2024-01-01 00:00:11.211,0.25,-0.33
2024-01-01 00:00:11.219,0.26,-0.32
2024-01-01 00:00:11.227,0.26,-0.36
2024-01-01 00:00:11.234,0.24,-0.42
2024-01-01 00:00:11.242,0.22,-0.45
2024-01-01 00:00:11.250,0.19,-0.46
2024-01-01 00:00:11.258,0.16,-0.48
2024-01-01 00:00:11.266,0.12,-0.48
2024-01-01 00:00:11.273,0.07,-0.39
2024-01-01 00:00:11.281,0.04,-0.31
2024-01-01 00:00:11.289,0.04,-0.24
2024-01-01 00:00:11.297,0.02,-0.17
2024-01-01 00:00:11.305,0.02,-0.07
2024-01-01 00:00:11.313,0.03,-0.06
2024-01-01 00:00:11.320,0.04,-0.06
2024-01-01 00:00:11.328,0.03,-0.03
2024-01-01 00:00:11.336,0.04,0.0
2024-01-01 00:00:11.344,0.04,-0.04
2024-01-01 00:00:11.352,0.04,-0.03
2024-01-01 00:00:11.359,0.04,-0.02
2024-01-01 00:00:11.367,0.03,-0.03
2024-01-01 00:00:11.375,0.03,-0.05
2024-01-01 00:00:11.383,0.04,-0.03
2024-01-01 00:00:11.391,0.04,-0.03
2024-01-01 00:00:11.398,0.03,-0.07
2024-01-01 00:00:11.406,0.05,-0.07
2024-01-01 00:00:11.414,0.05,-0.05
2024-01-01 00:00:11.422,0.05,-0.08
2024-01-01 00:00:11.430,0.05,-0.09
2024-01-01 00:00:11.438,0.05,-0.08
2024-01-01 00:00:11.445,0.06,-0.08
2024-01-01 00:00:11.453,0.06,-0.1
2024-01-01 00:00:11.461,0.06,-0.14
2024-01-01 00:00:11.469,0.04,-0.11
2024-01-01 00:00:11.477,0.06,-0.12
2024-01-01 00:00:11.484,0.06,-0.13
2024-01-01 00:00:11.492,0.03,-0.12
2024-01-01 00:00:11.500,0.05,-0.11
2024-01-01 00:00:11.508,0.04,-0.12
2024-01-01 00:00:11.516,0.03,-0.14
2024-01-01 00:00:11.523,0.02,-0.11
2024-01-01 00:00:11.531,0.02,-0.12
2024-01-01 00:00:11.539,0.02,-0.14
2024-01-01 00:00:11.547,0.0,-0.12
2024-01-01 00:00:11.555,0.02,-0.12
2024-01-01 00:00:11.563,0.0,-0.13
2024-01-01 00:00:11.570,0.01,-0.15
2024-01-01 00:00:11.578,0.0,-0.12
2024-01-01 00:00:11.586,0.01,-0.13
2024-01-01 00:00:11.594,0.0,-0.15
2024-01-01 00:00:11.602,0.01,-0.16
2024-01-01 00:00:11.609,0.01,-0.13
2024-01-01 00:00:11.617,0.01,-0.14
2024-01-01 00:00:11.625,0.0,-0.16
2024-01-01 00:00:11.633,0.0,-0.14
2024-01-01 00:00:11.641,0.0,-0.13
2024-01-01 00:00:11.648,0.0,-0.14
2024-01-01 00:00:11.656,0.01,-0.15
2024-01-01 00:00:11.664,0.06,-0.06
2024-01-01 00:00:11.672,0.06,-0.08
2024-01-01 00:00:11.680,0.05,-0.06
2024-01-01 00:00:11.688,0.1,0.02
2024-01-01 00:00:11.695,0.14,0.22
2024-01-01 00:00:11.703,0.16,0.2
2024-01-01 00:00:11.711,0.06,0.19
2024-01-01 00:00:11.719,0.03,0.2
2024-01-01 00:00:11.727,-0.08,0.08
2024-01-01 00:00:11.734,-0.12,0.05
2024-01-01 00:00:11.742,-0.11,0.06
2024-01-01 00:00:11.750,-0.09,-0.06
2024-01-01 00:00:11.758,-0.08,-0.17
2024-01-01 00:00:11.766,-0.08,-0.19
2024-01-01 00:00:11.773,-0.1,-0.15
2024-01-01 00:00:11.781,-0.09,-0.15
2024-01-01 00:00:11.789,-0.1,-0.25
2024-01-01 00:00:11.797,0.02,-0.14
2024-01-01 00:00:11.805,0.39,1.24
2024-01-01 00:00:11.813,0.76,4.39
2024-01-01 00:00:11.820,-1.1,5.11
2024-01-01 00:00:11.828,-1.85,4.78
2024-01-01 00:00:11.836,-1.54,0.67
2024-01-01 00:00:11.844,-1.23,-0.45
2024-01-01 00:00:11.852,-0.51,-0.37
2024-01-01 00:00:11.859,-0.14,-0.17
2024-01-01 00:00:11.867,-0.04,-0.27
2024-01-01 00:00:11.875,-0.03,-0.32
2024-01-01 00:00:11.883,-0.02,-0.29
2024-01-01 00:00:11.891,0.03,-0.3
2024-01-01 00:00:11.898,0.04,-0.31
2024-01-01 00:00:11.906,0.06,-0.31
2024-01-01 00:00:11.914,0.07,-0.28
2024-01-01 00:00:11.922,0.09,-0.29
2024-01-01 00:00:11.930,0.09,-0.3
2024-01-01 00:00:11.938,0.1,-0.27
2024-01-01 00:00:11.945,0.12,-0.26
2024-01-01 00:00:11.953,0.13,-0.27
2024-01-01 00:00:11.961,0.15,-0.28
2024-01-01 00:00:11.969,0.15,-0.24
2024-01-01 00:00:11.977,0.17,-0.25
2024-01-01 00:00:11.984,0.19,-0.26
2024-01-01 00:00:11.992,0.18,-0.24
2024-01-01 00:00:12.000,0.2,-0.24
2024-01-01 00:00:12.008,0.21,-0.26
2024-01-01 00:00:12.016,0.23,-0.29
2024-01-01 00:00:12.023,0.24,-0.28
2024-01-01 00:00:12.031,0.24,-0.31
2024-01-01 00:00:12.039,0.23,-0.36
2024-01-01 00:00:12.047,0.21,-0.38
2024-01-01 00:00:12.055,0.19,-0.4
2024-01-01 00:00:12.063,0.19,-0.45
2024-01-01 00:00:12.070,0.14,-0.47
2024-01-01 00:00:12.078,0.09,-0.41
2024-01-01 00:00:12.086,0.08,-0.38
2024-01-01 00:00:12.094,0.04,-0.32
2024-01-01 00:00:12.102,0.01,-0.22
2024-01-01 00:00:12.109,0.02,-0.13
2024-01-01 00:00:12.117,0.02,-0.08
2024-01-01 00:00:12.125,0.03,-0.08
2024-01-01 00:00:12.133,0.01,-0.02
2024-01-01 00:00:12.141,0.03,-0.02
2024-01-01 00:00:12.148,0.05,-0.03
2024-01-01 00:00:12.156,0.03,-0.03
2024-01-01 00:00:12.164,0.04,-0.01
2024-01-01 00:00:12.172,0.05,-0.03
2024-01-01 00:00:12.180,0.04,-0.04
2024-01-01 00:00:12.188,0.03,-0.02
2024-01-01 00:00:12.195,0.04,-0.03
2024-01-01 00:00:12.203,0.05,-0.06
2024-01-01 00:00:12.211,0.04,-0.08
2024-01-01 00:00:12.219,0.05,-0.05
2024-01-01 00:00:12.227,0.07,-0.08
2024-01-01 00:00:12.234,0.06,-0.1
2024-01-01 00:00:12.242,0.05,-0.09
2024-01-01 00:00:12.250,0.06,-0.09
2024-01-01 00:00:12.258,0.07,-0.1
2024-01-01 00:00:12.266,0.07,-0.13
2024-01-01 00:00:12.273,0.06,-0.08
2024-01-01 00:00:12.281,0.06,-0.1
2024-01-01 00:00:12.289,0.04,-0.12
2024-01-01 00:00:12.297,0.03,-0.11
2024-01-01 00:00:12.305,0.02,-0.11
2024-01-01 00:00:12.313,0.02,-0.12
2024-01-01 00:00:12.320,0.0,-0.14
2024-01-01 00:00:12.328,-0.01,-0.09
2024-01-01 00:00:12.336,0.0,-0.1
2024-01-01 00:00:12.344,-0.01,-0.13
2024-01-01 00:00:12.352,-0.02,-0.15
2024-01-01 00:00:12.359,-0.03,-0.13
2024-01-01 00:00:12.367,-0.04,-0.15
2024-01-01 00:00:12.375,-0.04,-0.16
2024-01-01 00:00:12.383,-0.05,-0.13
2024-01-01 00:00:12.391,-0.03,-0.13
2024-01-01 00:00:12.398,-0.04,-0.15
2024-01-01 00:00:12.406,-0.05,-0.15
2024-01-01 00:00:12.414,-0.06,-0.14
2024-01-01 00:00:12.422,-0.06,-0.14
2024-01-01 00:00:12.430,-0.07,-0.17
2024-01-01 00:00:12.438,-0.08,-0.14
2024-01-01 00:00:12.445,-0.07,-0.13
2024-01-01 00:00:12.453,-0.09,-0.15
2024-01-01 00:00:12.461,-0.09,-0.14
2024-01-01 00:00:12.469,-0.08,-0.11
2024-01-01 00:00:12.477,-0.05,-0.06
2024-01-01 00:00:12.484,-0.01,-0.07
2024-01-01 00:00:12.492,-0.04,-0.01
2024-01-01 00:00:12.500,0.04,0.03
2024-01-01 00:00:12.508,0.04,0.15
2024-01-01 00:00:12.516,0.1,0.23
2024-01-01 00:00:12.523,0.01,0.24
2024-01-01 00:00:12.531,-0.03,0.25
2024-01-01 00:00:12.539,-0.07,0.1
2024-01-01 00:00:12.547,-0.19,0.08
2024-01-01 00:00:12.555,-0.16,0.08
2024-01-01 00:00:12.563,-0.17,-0.02
2024-01-01 00:00:12.570,-0.14,-0.17
2024-01-01 00:00:12.578,-0.14,-0.17
2024-01-01 00:00:12.586,-0.13,-0.17
2024-01-01 00:00:12.594,-0.13,-0.16
2024-01-01 00:00:12.602,-0.14,-0.18
2024-01-01 00:00:12.609,-0.11,-0.34
2024-01-01 00:00:12.617,0.24,0.62
2024-01-01 00:00:12.625,0.47,3.04
2024-01-01 00:00:12.633,0.21,5.11
2024-01-01 00:00:12.641,-1.74,5.11
2024-01-01 00:00:12.648,-1.8,2.8
2024-01-01 00:00:12.656,-1.15,-0.67
2024-01-01 00:00:12.664,-0.75,-0.39
2024-01-01 00:00:12.672,-0.38,-0.24
2024-01-01 00:00:12.680,-0.07,-0.28
2024-01-01 00:00:12.688,-0.08,-0.3
2024-01-01 00:00:12.695,-0.03,-0.33
2024-01-01 00:00:12.703,-0.02,-0.33
2024-01-01 00:00:12.711,-0.01,-0.34
2024-01-01 00:00:12.719,0.0,-0.33
2024-01-01 00:00:12.727,0.02,-0.32
2024-01-01 00:00:12.734,0.04,-0.32
2024-01-01 00:00:12.742,0.03,-0.29
2024-01-01 00:00:12.750,0.06,-0.3
2024-01-01 00:00:12.758,0.08,-0.29
2024-01-01 00:00:12.766,0.09,-0.29
2024-01-01 00:00:12.773,0.1,-0.26
2024-01-01 00:00:12.781,0.12,-0.25
2024-01-01 00:00:12.789,0.14,-0.27
2024-01-01 00:00:12.797,0.12,-0.25
2024-01-01 00:00:12.805,0.13,-0.25
2024-01-01 00:00:12.813,0.15,-0.27
2024-01-01 00:00:12.820,0.15,-0.28
2024-01-01 00:00:12.828,0.16,-0.25
2024-01-01 00:00:12.836,0.16,-0.27
2024-01-01 00:00:12.844,0.18,-0.3
2024-01-01 00:00:12.852,0.13,-0.3
2024-01-01 00:00:12.859,0.14,-0.34
2024-01-01 00:00:12.867,0.11,-0.38
2024-01-01 00:00:12.875,0.08,-0.42
2024-01-01 00:00:12.883,0.06,-0.39
2024-01-01 00:00:12.891,0.08,-0.41
2024-01-01 00:00:12.898,0.03,-0.38
2024-01-01 00:00:12.906,0.01,-0.31
2024-01-01 00:00:12.914,-0.01,-0.24
2024-01-01 00:00:12.922,-0.02,-0.18
2024-01-01 00:00:12.930,-0.03,-0.12
2024-01-01 00:00:12.938,-0.03,-0.07
2024-01-01 00:00:12.945,-0.01,-0.04
2024-01-01 00:00:12.953,-0.01,-0.1
2024-01-01 00:00:12.961,-0.01,-0.09
2024-01-01 00:00:12.969,-0.01,-0.06
2024-01-01 00:00:12.977,-0.01,-0.08
2024-01-01 00:00:12.984,-0.03,-0.1
2024-01-01 00:00:12.992,-0.01,-0.09
2024-01-01 00:00:13.000,0.01,-0.08
2024-01-01 00:00:13.008,0.02,-0.12
2024-01-01 00:00:13.016,0.0,-0.14
2024-01-01 00:00:13.023,-0.01,-0.13
2024-01-01 00:00:13.031,0.01,-0.12
2024-01-01 00:00:13.039,0.02,-0.16
2024-01-01 00:00:13.047,0.01,-0.14
2024-01-01 00:00:13.055,0.02,-0.16
2024-01-01 00:00:13.063,0.02,-0.16
2024-01-01 00:00:13.070,0.04,-0.19
2024-01-01 00:00:13.078,0.02,-0.16
2024-01-01 00:00:13.086,0.02,-0.17
2024-01-01 00:00:13.094,0.01,-0.18
2024-01-01 00:00:13.102,0.0,-0.16
2024-01-01 00:00:13.109,0.02,-0.15
2024-01-01 00:00:13.117,-0.01,-0.17
2024-01-01 00:00:13.125,0.0,-0.16
2024-01-01 00:00:13.133,-0.03,-0.17
2024-01-01 00:00:13.141,-0.03,-0.17
2024-01-01 00:00:13.148,0.0,-0.19
2024-01-01 00:00:13.156,0.0,-0.2
2024-01-01 00:00:13.164,-0.02,-0.17
2024-01-01 00:00:13.172,-0.01,-0.2
2024-01-01 00:00:13.180,-0.02,-0.22
2024-01-01 00:00:13.188,-0.03,-0.17
2024-01-01 00:00:13.195,-0.02,-0.16
2024-01-01 00:00:13.203,-0.03,-0.2
2024-01-01 00:00:13.211,-0.02,-0.22
2024-01-01 00:00:13.219,-0.04,-0.19
2024-01-01 00:00:13.227,-0.03,-0.2
2024-01-01 00:00:13.234,-0.03,-0.21
2024-01-01 00:00:13.242,-0.03,-0.19
2024-01-01 00:00:13.250,-0.03,-0.2
2024-01-01 00:00:13.258,-0.04,-0.2
2024-01-01 00:00:13.266,-0.01,-0.2
2024-01-01 00:00:13.273,0.04,-0.13
2024-01-01 00:00:13.281,0.0,-0.14
2024-01-01 00:00:13.289,0.08,-0.11
2024-01-01 00:00:13.297,0.08,0.02
2024-01-01 00:00:13.305,0.16,0.2
2024-01-01 00:00:13.313,0.1,0.13
2024-01-01 00:00:13.320,0.05,0.14
2024-01-01 00:00:13.328,0.0,0.08
2024-01-01 00:00:13.336,-0.11,-0.01
2024-01-01 00:00:13.344,-0.11,-0.05
2024-01-01 00:00:13.352,-0.12,-0.07
2024-01-01 00:00:13.359,-0.09,-0.21
2024-01-01 00:00:13.367,-0.1,-0.26
2024-01-01 00:00:13.375,-0.11,-0.28
2024-01-01 00:00:13.383,-0.12,-0.24
2024-01-01 00:00:13.391,-0.1,-0.22
2024-01-01 00:00:13.398,-0.12,-0.37
2024-01-01 00:00:13.406,0.15,0.3
2024-01-01 00:00:13.414,0.47,2.1
2024-01-01 00:00:13.422,0.69,5.11
2024-01-01 00:00:13.430,-1.18,5.11
2024-01-01 00:00:13.438,-1.54,3.95
2024-01-01 00:00:13.445,-1.19,-0.39
2024-01-01 00:00:13.453,-0.85,-0.48
2024-01-01 00:00:13.461,-0.53,-0.43
2024-01-01 00:00:13.469,-0.09,-0.28
2024-01-01 00:00:13.477,-0.06,-0.35
2024-01-01 00:00:13.484,-0.03,-0.38
2024-01-01 00:00:13.492,-0.01,-0.36
2024-01-01 00:00:13.500,0.01,-0.35
2024-01-01 00:00:13.508,0.04,-0.36
2024-01-01 00:00:13.516,0.04,-0.37
2024-01-01 00:00:13.523,0.05,-0.32
2024-01-01 00:00:13.531,0.07,-0.33
2024-01-01 00:00:13.539,0.06,-0.33
2024-01-01 00:00:13.547,0.07,-0.3
2024-01-01 00:00:13.555,0.09,-0.29
2024-01-01 00:00:13.563,0.1,-0.31
2024-01-01 00:00:13.570,0.1,-0.32
2024-01-01 00:00:13.578,0.13,-0.29
2024-01-01 00:00:13.586,0.13,-0.3
2024-01-01 00:00:13.594,0.15,-0.33
2024-01-01 00:00:13.602,0.16,-0.32
2024-01-01 00:00:13.609,0.19,-0.32
2024-01-01 00:00:13.617,0.2,-0.34
2024-01-01 00:00:13.625,0.22,-0.35
2024-01-01 00:00:13.633,0.2,-0.36
2024-01-01 00:00:13.641,0.21,-0.38
2024-01-01 00:00:13.648,0.21,-0.42
2024-01-01 00:00:13.656,0.18,-0.44
2024-01-01 00:00:13.664,0.17,-0.47
2024-01-01 00:00:13.672,0.15,-0.53
2024-01-01 00:00:13.680,0.11,-0.52
2024-01-01 00:00:13.688,0.08,-0.47
2024-01-01 00:00:13.695,0.05,-0.42
2024-01-01 00:00:13.703,0.04,-0.36
2024-01-01 00:00:13.711,0.03,-0.25
2024-01-01 00:00:13.719,0.04,-0.2
2024-01-01 00:00:13.727,0.04,-0.17
2024-01-01 00:00:13.734,0.03,-0.15
2024-01-01 00:00:13.742,0.03,-0.12
2024-01-01 00:00:13.750,0.03,-0.12
2024-01-01 00:00:13.758,0.05,-0.13
2024-01-01 00:00:13.766,0.05,-0.11
2024-01-01 00:00:13.773,0.05,-0.11
2024-01-01 00:00:13.781,0.05,-0.13
2024-01-01 00:00:13.789,0.05,-0.14
2024-01-01 00:00:13.797,0.06,-0.11
2024-01-01 00:00:13.805,0.07,-0.13
2024-01-01 00:00:13.813,0.07,-0.15
2024-01-01 00:00:13.820,0.07,-0.14
2024-01-01 00:00:13.828,0.08,-0.14
2024-01-01 00:00:13.836,0.07,-0.16
2024-01-01 00:00:13.844,0.06,-0.16
2024-01-01 00:00:13.852,0.06,-0.14
2024-01-01 00:00:13.859,0.06,-0.14
2024-01-01 00:00:13.867,0.06,-0.16
2024-01-01 00:00:13.875,0.05,-0.15
2024-01-01 00:00:13.883,0.05,-0.14
2024-01-01 00:00:13.891,0.05,-0.15
2024-01-01 00:00:13.898,0.04,-0.16
2024-01-01 00:00:13.906,0.02,-0.13
2024-01-01 00:00:13.914,0.03,-0.14
2024-01-01 00:00:13.922,0.03,-0.17
2024-01-01 00:00:13.930,0.01,-0.17
2024-01-01 00:00:13.938,0.02,-0.16
2024-01-01 00:00:13.945,0.01,-0.17
2024-01-01 00:00:13.953,0.0,-0.19
2024-01-01 00:00:13.961,0.0,-0.15
2024-01-01 00:00:13.969,0.01,-0.16
2024-01-01 00:00:13.977,-0.01,-0.18
2024-01-01 00:00:13.984,-0.01,-0.18
2024-01-01 00:00:13.992,0.0,-0.17
2024-01-01 00:00:14.000,-0.02,-0.18
2024-01-01 00:00:14.008,-0.02,-0.21
2024-01-01 00:00:14.016,-0.03,-0.17
2024-01-01 00:00:14.023,-0.01,-0.18
2024-01-01 00:00:14.031,-0.03,-0.22
2024-01-01 00:00:14.039,-0.03,-0.2
2024-01-01 00:00:14.047,-0.03,-0.19
2024-01-01 00:00:14.055,-0.04,-0.2
2024-01-01 00:00:14.063,-0.04,-0.22
2024-01-01 00:00:14.070,-0.03,-0.16
2024-01-01 00:00:14.078,0.03,-0.11
2024-01-01 00:00:14.086,0.03,-0.13
2024-01-01 00:00:14.094,0.05,-0.07
2024-01-01 00:00:14.102,0.06,-0.01
2024-01-01 00:00:14.109,0.14,0.19
2024-01-01 00:00:14.117,0.14,0.14
2024-01-01 00:00:14.125,0.04,0.2
2024-01-01 00:00:14.133,0.02,0.18
2024-01-01 00:00:14.141,-0.07,0.04
2024-01-01 00:00:14.148,-0.12,0.03
2024-01-01 00:00:14.156,-0.1,0.03
2024-01-01 00:00:14.164,-0.09,-0.1
2024-01-01 00:00:14.172,-0.07,-0.21
2024-01-01 00:00:14.180,-0.08,-0.19
2024-01-01 00:00:14.188,-0.08,-0.19
2024-01-01 00:00:14.195,-0.07,-0.19
2024-01-01 00:00:14.203,-0.07,-0.29
2024-01-01 00:00:14.211,0.09,-0.16
2024-01-01 00:00:14.219,0.43,1.2
2024-01-01 00:00:14.227,0.82,4.34
2024-01-01 00:00:14.234,-1.2,5.11
2024-01-01 00:00:14.242,-1.89,4.77
2024-01-01 00:00:14.250,-1.56,0.78
2024-01-01 00:00:14.258,-1.26,-0.54
2024-01-01 00:00:14.266,-0.47,-0.4
2024-01-01 00:00:14.273,-0.1,-0.22
2024-01-01 00:00:14.281,-0.02,-0.33
2024-01-01 00:00:14.289,-0.02,-0.35
2024-01-01 00:00:14.297,0.03,-0.35
2024-01-01 00:00:14.305,0.05,-0.36
2024-01-01 00:00:14.313,0.05,-0.38
2024-01-01 00:00:14.320,0.07,-0.33
2024-01-01 00:00:14.328,0.09,-0.34
2024-01-01 00:00:14.336,0.09,-0.35
2024-01-01 00:00:14.344,0.1,-0.33
2024-01-01 00:00:14.352,0.11,-0.32
2024-01-01 00:00:14.359,0.13,-0.32
2024-01-01 00:00:14.367,0.13,-0.34
2024-01-01 00:00:14.375,0.14,-0.3
2024-01-01 00:00:14.383,0.16,-0.3
2024-01-01 00:00:14.391,0.19,-0.32
2024-01-01 00:00:14.398,0.18,-0.32
2024-01-01 00:00:14.406,0.22,-0.31
2024-01-01 00:00:14.414,0.23,-0.3
2024-01-01 00:00:14.422,0.24,-0.32
2024-01-01 00:00:14.430,0.26,-0.31
2024-01-01 00:00:14.438,0.28,-0.32
2024-01-01 00:00:14.445,0.28,-0.37
2024-01-01 00:00:14.453,0.26,-0.4
2024-01-01 00:00:14.461,0.25,-0.41
2024-01-01 00:00:14.469,0.24,-0.47
2024-01-01 00:00:14.477,0.21,-0.51
2024-01-01 00:00:14.484,0.15,-0.48
2024-01-01 00:00:14.492,0.12,-0.46
2024-01-01 00:00:14.500,0.07,-0.42
2024-01-01 00:00:14.508,0.03,-0.36
2024-01-01 00:00:14.516,0.01,-0.26
2024-01-01 00:00:14.523,0.02,-0.18
2024-01-01 00:00:14.531,0.01,-0.14
2024-01-01 00:00:14.539,0.01,-0.08
2024-01-01 00:00:14.547,0.02,-0.05
2024-01-01 00:00:14.555,0.02,-0.07
2024-01-01 00:00:14.563,0.04,-0.06
2024-01-01 00:00:14.570,0.02,-0.05
2024-01-01 00:00:14.578,0.03,-0.04
2024-01-01 00:00:14.586,0.02,-0.07
2024-01-01 00:00:14.594,0.03,-0.05
2024-01-01 00:00:14.602,0.02,-0.07
2024-01-01 00:00:14.609,0.04,-0.07
2024-01-01 00:00:14.617,0.02,-0.1
2024-01-01 00:00:14.625,0.04,-0.06
2024-01-01 00:00:14.633,0.04,-0.07
2024-01-01 00:00:14.641,0.04,-0.1
2024-01-01 00:00:14.648,0.05,-0.09
2024-01-01 00:00:14.656,0.05,-0.1
2024-01-01 00:00:14.664,0.05,-0.11
2024-01-01 00:00:14.672,0.06,-0.15
2024-01-01 00:00:14.680,0.05,-0.11
2024-01-01 00:00:14.688,0.06,-0.13
2024-01-01 00:00:14.695,0.07,-0.15
2024-01-01 00:00:14.703,0.05,-0.15
2024-01-01 00:00:14.711,0.06,-0.14
2024-01-01 00:00:14.719,0.05,-0.16
2024-01-01 00:00:14.727,0.03,-0.18
2024-01-01 00:00:14.734,0.02,-0.15
2024-01-01 00:00:14.742,0.04,-0.16
2024-01-01 00:00:14.750,0.03,-0.18
2024-01-01 00:00:14.758,0.02,-0.16
2024-01-01 00:00:14.766,0.0,-0.15
2024-01-01 00:00:14.773,0.0,-0.16
2024-01-01 00:00:14.781,0.0,-0.19
2024-01-01 00:00:14.789,0.0,-0.16
2024-01-01 00:00:14.797,0.0,-0.17
2024-01-01 00:00:14.805,0.01,-0.18
2024-01-01 00:00:14.813,0.0,-0.19
2024-01-01 00:00:14.820,-0.01,-0.16
2024-01-01 00:00:14.828,0.0,-0.18
2024-01-01 00:00:14.836,0.0,-0.18
2024-01-01 00:00:14.844,-0.01,-0.17
2024-01-01 00:00:14.852,-0.01,-0.17
2024-01-01 00:00:14.859,0.0,-0.18
2024-01-01 00:00:14.867,-0.01,-0.19
2024-01-01 00:00:14.875,0.0,-0.15
2024-01-01 00:00:14.883,0.04,-0.09
2024-01-01 00:00:14.891,0.06,-0.1
2024-01-01 00:00:14.898,0.04,-0.05
2024-01-01 00:00:14.906,0.12,-0.01
2024-01-01 00:00:14.914,0.14,0.15
2024-01-01 00:00:14.922,0.18,0.2
2024-01-01 00:00:14.930,0.07,0.21
2024-01-01 00:00:14.938,0.05,0.22
2024-01-01 00:00:14.945,-0.03,0.1
2024-01-01 00:00:14.953,-0.11,0.06
2024-01-01 00:00:14.961,-0.08,0.07
2024-01-01 00:00:14.969,-0.1,-0.04
2024-01-01 00:00:14.977,-0.08,-0.18
2024-01-01 00:00:14.984,-0.07,-0.16
2024-01-01 00:00:14.992,-0.08,-0.16
2024-01-01 00:00:15.000,-0.07,-0.17
2024-01-01 00:00:15.008,-0.08,-0.17
2024-01-01 00:00:15.016,-0.05,-0.32
2024-01-01 00:00:15.023,0.36,0.66
2024-01-01 00:00:15.031,0.55,3.27
2024-01-01 00:00:15.039,-0.24,5.11
2024-01-01 00:00:15.047,-1.83,5.11
2024-01-01 00:00:15.055,-1.83,2.45
2024-01-01 00:00:15.063,-1.17,-0.67
2024-01-01 00:00:15.070,-0.62,-0.38
2024-01-01 00:00:15.078,-0.26,-0.2
2024-01-01 00:00:15.086,-0.02,-0.27
2024-01-01 00:00:15.094,-0.02,-0.3
2024-01-01 00:00:15.102,0.02,-0.3
2024-01-01 00:00:15.109,0.04,-0.32
2024-01-01 00:00:15.117,0.05,-0.35
2024-01-01 00:00:15.125,0.06,-0.31
2024-01-01 00:00:15.133,0.08,-0.31
2024-01-01 00:00:15.141,0.09,-0.33
2024-01-01 00:00:15.148,0.09,-0.28
2024-01-01 00:00:15.156,0.1,-0.28
2024-01-01 00:00:15.164,0.12,-0.28
2024-01-01 00:00:15.172,0.12,-0.3
2024-01-01 00:00:15.180,0.13,-0.24
2024-01-01 00:00:15.188,0.15,-0.27
2024-01-01 00:00:15.195,0.18,-0.26
2024-01-01 00:00:15.203,0.18,-0.25
2024-01-01 00:00:15.211,0.2,-0.24
2024-01-01 00:00:15.219,0.22,-0.26
2024-01-01 00:00:15.227,0.23,-0.27
2024-01-01 00:00:15.234,0.24,-0.25
2024-01-01 00:00:15.242,0.26,-0.26
2024-01-01 00:00:15.250,0.26,-0.3
2024-01-01 00:00:15.258,0.24,-0.32
2024-01-01 00:00:15.266,0.22,-0.34
2024-01-01 00:00:15.273,0.19,-0.39
2024-01-01 00:00:15.281,0.17,-0.43
2024-01-01 00:00:15.289,0.13,-0.42
2024-01-01 00:00:15.297,0.09,-0.4
2024-01-01 00:00:15.305,0.06,-0.38
2024-01-01 00:00:15.313,0.03,-0.31
2024-01-01 00:00:15.320,0.0,-0.22
2024-01-01 00:00:15.328,0.0,-0.15
2024-01-01 00:00:15.336,-0.01,-0.11
2024-01-01 00:00:15.344,-0.01,-0.04
2024-01-01 00:00:15.352,0.0,-0.02
2024-01-01 00:00:15.359,0.03,-0.03
2024-01-01 00:00:15.367,0.0,-0.04
2024-01-01 00:00:15.375,0.02,-0.02
2024-01-01 00:00:15.383,0.02,-0.04
2024-01-01 00:00:15.391,0.01,-0.06
2024-01-01 00:00:15.398,0.01,-0.03
2024-01-01 00:00:15.406,0.01,-0.04
2024-01-01 00:00:15.414,0.02,-0.06
2024-01-01 00:00:15.422,0.02,-0.07
2024-01-01 00:00:15.430,0.02,-0.04
2024-01-01 00:00:15.438,0.01,-0.06
2024-01-01 00:00:15.445,0.02,-0.09
2024-01-01 00:00:15.453,0.01,-0.07
2024-01-01 00:00:15.461,0.03,-0.08
2024-01-01 00:00:15.469,0.02,-0.11
2024-01-01 00:00:15.477,0.02,-0.13
2024-01-01 00:00:15.484,0.02,-0.09
2024-01-01 00:00:15.492,0.03,-0.11
2024-01-01 00:00:15.500,0.02,-0.12
2024-01-01 00:00:15.508,0.0,-0.11
2024-01-01 00:00:15.516,0.03,-0.12
2024-01-01 00:00:15.523,0.0,-0.14
2024-01-01 00:00:15.531,0.0,-0.16
2024-01-01 00:00:15.539,-0.02,-0.13
2024-01-01 00:00:15.547,-0.01,-0.12
2024-01-01 00:00:15.555,-0.04,-0.16
2024-01-01 00:00:15.563,-0.03,-0.14
2024-01-01 00:00:15.570,-0.03,-0.13
2024-01-01 00:00:15.578,-0.04,-0.15
2024-01-01 00:00:15.586,-0.03,-0.16
2024-01-01 00:00:15.594,-0.05,-0.14
2024-01-01 00:00:15.602,-0.05,-0.13
2024-01-01 00:00:15.609,-0.04,-0.17
2024-01-01 00:00:15.617,-0.04,-0.15
2024-01-01 00:00:15.625,-0.04,-0.14
2024-01-01 00:00:15.633,-0.04,-0.16
2024-01-01 00:00:15.641,-0.03,-0.19
2024-01-01 00:00:15.648,-0.03,-0.14
2024-01-01 00:00:15.656,-0.02,-0.16
2024-01-01 00:00:15.664,-0.01,-0.16
2024-01-01 00:00:15.672,0.02,-0.11
2024-01-01 00:00:15.680,0.04,-0.07
2024-01-01 00:00:15.688,0.03,-0.05
2024-01-01 00:00:15.695,0.1,-0.03
2024-01-01 00:00:15.703,0.1,0.16
2024-01-01 00:00:15.711,0.17,0.23
2024-01-01 00:00:15.719,0.07,0.2
2024-01-01 00:00:15.727,0.04,0.2
2024-01-01 00:00:15.734,-0.05,0.11
2024-01-01 00:00:15.742,-0.1,0.05
2024-01-01 00:00:15.750,-0.09,0.03
2024-01-01 00:00:15.758,-0.11,-0.03
2024-01-01 00:00:15.766,-0.07,-0.14
2024-01-01 00:00:15.773,-0.06,-0.2
2024-01-01 00:00:15.781,-0.08,-0.21
2024-01-01 00:00:15.789,-0.08,-0.16
2024-01-01 00:00:15.797,-0.09,-0.16
2024-01-01 00:00:15.805,-0.07,-0.34
2024-01-01 00:00:15.813,0.33,0.7
2024-01-01 00:00:15.820,0.54,3.27
2024-01-01 00:00:15.828,-0.15,5.11
2024-01-01 00:00:15.836,-1.77,5.11
2024-01-01 00:00:15.844,-1.75,2.42
2024-01-01 00:00:15.852,-1.14,-0.63
2024-01-01 00:00:15.859,-0.6,-0.41
2024-01-01 00:00:15.867,-0.28,-0.18
2024-01-01 00:00:15.875,-0.02,-0.26
2024-01-01 00:00:15.883,-0.03,-0.31
2024-01-01 00:00:15.891,-0.01,-0.34
2024-01-01 00:00:15.898,0.01,-0.32
2024-01-01 00:00:15.906,0.04,-0.33
2024-01-01 00:00:15.914,0.05,-0.34
2024-01-01 00:00:15.922,0.05,-0.32
2024-01-01 00:00:15.930,0.07,-0.29
2024-01-01 00:00:15.938,0.06,-0.32
2024-01-01 00:00:15.945,0.07,-0.33
2024-01-01 00:00:15.953,0.08,-0.28
2024-01-01 00:00:15.961,0.09,-0.28
2024-01-01 00:00:15.969,0.11,-0.29
2024-01-01 00:00:15.977,0.1,-0.27
2024-01-01 00:00:15.984,0.13,-0.27
2024-01-01 00:00:15.992,0.15,-0.29
2024-01-01 00:00:16.000,0.14,-0.3
2024-01-01 00:00:16.008,0.14,-0.26
2024-01-01 00:00:16.016,0.16,-0.27
2024-01-01 00:00:16.023,0.16,-0.28
2024-01-01 00:00:16.031,0.17,-0.3
2024-01-01 00:00:16.039,0.17,-0.3
2024-01-01 00:00:16.047,0.16,-0.34
2024-01-01 00:00:16.055,0.13,-0.38
2024-01-01 00:00:16.063,0.12,-0.36
2024-01-01 00:00:16.070,0.1,-0.39
2024-01-01 00:00:16.078,0.09,-0.43
2024-01-01 00:00:16.086,0.05,-0.4
2024-01-01 00:00:16.094,0.02,-0.34
2024-01-01 00:00:16.102,0.01,-0.29
2024-01-01 00:00:16.109,0.0,-0.24
2024-01-01 00:00:16.117,-0.01,-0.12
2024-01-01 00:00:16.125,0.0,-0.08
2024-01-01 00:00:16.133,0.0,-0.09
2024-01-01 00:00:16.141,-0.01,-0.04
2024-01-01 00:00:16.148,0.02,-0.04
2024-01-01 00:00:16.156,0.04,-0.08
2024-01-01 00:00:16.164,0.04,-0.09
2024-01-01 00:00:16.172,0.03,-0.08
2024-01-01 00:00:16.180,0.03,-0.06
2024-01-01 00:00:16.188,0.03,-0.09
2024-01-01 00:00:16.195,0.04,-0.09
2024-01-01 00:00:16.203,0.05,-0.08
2024-01-01 00:00:16.211,0.05,-0.11
2024-01-01 00:00:16.219,0.05,-0.14
2024-01-01 00:00:16.227,0.05,-0.14
2024-01-01 00:00:16.234,0.06,-0.14
2024-01-01 00:00:16.242,0.07,-0.16
2024-01-01 00:00:16.250,0.05,-0.17
2024-01-01 00:00:16.258,0.06,-0.14
2024-01-01 00:00:16.266,0.06,-0.17
2024-01-01 00:00:16.273,0.05,-0.18
2024-01-01 00:00:16.281,0.05,-0.14
2024-01-01 00:00:16.289,0.04,-0.16
2024-01-01 00:00:16.297,0.04,-0.18
2024-01-01 00:00:16.305,0.01,-0.2
2024-01-01 00:00:16.313,0.03,-0.18
2024-01-01 00:00:16.320,0.04,-0.2
2024-01-01 00:00:16.328,0.02,-0.2
2024-01-01 00:00:16.336,0.02,-0.17
2024-01-01 00:00:16.344,0.01,-0.17
2024-01-01 00:00:16.352,0.0,-0.2
2024-01-01 00:00:16.359,0.0,-0.19
2024-01-01 00:00:16.367,-0.02,-0.18
2024-01-01 00:00:16.375,-0.01,-0.19
2024-01-01 00:00:16.383,-0.01,-0.22
2024-01-01 00:00:16.391,-0.01,-0.19
2024-01-01 00:00:16.398,-0.01,-0.2
2024-01-01 00:00:16.406,-0.01,-0.21
2024-01-01 00:00:16.414,-0.01,-0.22
2024-01-01 00:00:16.422,-0.02,-0.22
2024-01-01 00:00:16.430,0.0,-0.22
2024-01-01 00:00:16.438,-0.01,-0.24
2024-01-01 00:00:16.445,-0.02,-0.21
2024-01-01 00:00:16.453,0.0,-0.21
2024-01-01 00:00:16.461,0.04,-0.17
2024-01-01 00:00:16.469,0.06,-0.17
2024-01-01 00:00:16.477,0.03,-0.11
2024-01-01 00:00:16.484,0.11,-0.08
2024-01-01 00:00:16.492,0.15,0.05
2024-01-01 00:00:16.500,0.19,0.17
2024-01-01 00:00:16.508,0.12,0.16
2024-01-01 00:00:16.516,0.09,0.15
2024-01-01 00:00:16.523,0.01,0.02
2024-01-01 00:00:16.531,-0.08,0.0
2024-01-01 00:00:16.539,-0.05,-0.04
2024-01-01 00:00:16.547,-0.04,-0.12
2024-01-01 00:00:16.555,-0.08,-0.22
2024-01-01 00:00:16.563,-0.04,-0.24
2024-01-01 00:00:16.570,-0.06,-0.27
2024-01-01 00:00:16.578,-0.07,-0.26
2024-01-01 00:00:16.586,-0.09,-0.26
2024-01-01 00:00:16.594,-0.01,-0.34
2024-01-01 00:00:16.602,0.3,0.76
2024-01-01 00:00:16.609,0.61,3.3
2024-01-01 00:00:16.617,-0.01,5.11
2024-01-01 00:00:16.625,-1.5,5.11
2024-01-01 00:00:16.633,-1.44,2.42
2024-01-01 00:00:16.641,-1.12,-0.71
2024-01-01 00:00:16.648,-0.62,-0.53
2024-01-01 00:00:16.656,-0.34,-0.34
2024-01-01 00:00:16.664,-0.04,-0.36
2024-01-01 00:00:16.672,-0.04,-0.36
2024-01-01 00:00:16.680,-0.03,-0.39
2024-01-01 00:00:16.688,0.01,-0.42
2024-01-01 00:00:16.695,0.02,-0.39
2024-01-01 00:00:16.703,0.02,-0.4
2024-01-01 00:00:16.711,0.05,-0.4
2024-01-01 00:00:16.719,0.04,-0.39
2024-01-01 00:00:16.727,0.06,-0.35
2024-01-01 00:00:16.734,0.07,-0.36
2024-01-01 00:00:16.742,0.08,-0.35
2024-01-01 00:00:16.750,0.07,-0.32
2024-01-01 00:00:16.758,0.1,-0.32
2024-01-01 00:00:16.766,0.1,-0.33
2024-01-01 00:00:16.773,0.11,-0.31
2024-01-01 00:00:16.781,0.13,-0.29
2024-01-01 00:00:16.789,0.14,-0.29
2024-01-01 00:00:16.797,0.16,-0.29
2024-01-01 00:00:16.805,0.16,-0.26
2024-01-01 00:00:16.813,0.18,-0.25
2024-01-01 00:00:16.820,0.17,-0.29
2024-01-01 00:00:16.828,0.19,-0.3
2024-01-01 00:00:16.836,0.17,-0.29
2024-01-01 00:00:16.844,0.18,-0.33
2024-01-01 00:00:16.852,0.16,-0.37
2024-01-01 00:00:16.859,0.14,-0.38
2024-01-01 00:00:16.867,0.12,-0.39
2024-01-01 00:00:16.875,0.11,-0.4
2024-01-01 00:00:16.883,0.06,-0.39
2024-01-01 00:00:16.891,0.04,-0.3
2024-01-01 00:00:16.898,0.04,-0.26
2024-01-01 00:00:16.906,0.02,-0.22
2024-01-01 00:00:16.914,0.01,-0.16
2024-01-01 00:00:16.922,0.03,-0.12
2024-01-01 00:00:16.930,0.02,-0.14
2024-01-01 00:00:16.938,0.03,-0.15
2024-01-01 00:00:16.945,0.05,-0.13
2024-01-01 00:00:16.953,0.05,-0.13
2024-01-01 00:00:16.961,0.07,-0.15
2024-01-01 00:00:16.969,0.06,-0.16
2024-01-01 00:00:16.977,0.07,-0.14
2024-01-01 00:00:16.984,0.08,-0.16
2024-01-01 00:00:16.992,0.08,-0.19
2024-01-01 00:00:17.000,0.09,-0.16
2024-01-01 00:00:17.008,0.1,-0.18
2024-01-01 00:00:17.016,0.1,-0.21
2024-01-01 00:00:17.023,0.09,-0.19
2024-01-01 00:00:17.031,0.09,-0.16
2024-01-01 00:00:17.039,0.1,-0.18
2024-01-01 00:00:17.047,0.09,-0.18
2024-01-01 00:00:17.055,0.09,-0.17
2024-01-01 00:00:17.063,0.09,-0.17
2024-01-01 00:00:17.070,0.07,-0.18
2024-01-01 00:00:17.078,0.07,-0.19
2024-01-01 00:00:17.086,0.06,-0.17
2024-01-01 00:00:17.094,0.07,-0.18
2024-01-01 00:00:17.102,0.06,-0.2
2024-01-01 00:00:17.109,0.05,-0.17
2024-01-01 00:00:17.117,0.05,-0.18
2024-01-01 00:00:17.125,0.04,-0.18
2024-01-01 00:00:17.133,0.05,-0.19
2024-01-01 00:00:17.141,0.03,-0.17
2024-01-01 00:00:17.148,0.04,-0.17
2024-01-01 00:00:17.156,0.02,-0.19
2024-01-01 00:00:17.164,0.03,-0.18
2024-01-01 00:00:17.172,0.02,-0.18
2024-01-01 00:00:17.180,0.03,-0.19
2024-01-01 00:00:17.188,0.03,-0.2
2024-01-01 00:00:17.195,0.01,-0.16
2024-01-01 00:00:17.203,0.01,-0.17
2024-01-01 00:00:17.211,0.02,-0.19
2024-01-01 00:00:17.219,0.01,-0.19
2024-01-01 00:00:17.227,0.0,-0.18
2024-01-01 00:00:17.234,0.01,-0.19
2024-01-01 00:00:17.242,0.02,-0.18
2024-01-01 00:00:17.250,0.07,-0.1
2024-01-01 00:00:17.258,0.05,-0.11
2024-01-01 00:00:17.266,0.11,-0.09
2024-01-01 00:00:17.273,0.11,-0.05
2024-01-01 00:00:17.281,0.2,0.18
2024-01-01 00:00:17.289,0.17,0.14
2024-01-01 00:00:17.297,0.08,0.15
2024-01-01 00:00:17.305,0.04,0.15
2024-01-01 00:00:17.313,-0.05,0.03
2024-01-01 00:00:17.320,-0.1,0.0
2024-01-01 00:00:17.328,-0.07,-0.03
2024-01-01 00:00:17.336,-0.06,-0.14
2024-01-01 00:00:17.344,-0.06,-0.24
2024-01-01 00:00:17.352,-0.05,-0.27
2024-01-01 00:00:17.359,-0.06,-0.24
2024-01-01 00:00:17.367,-0.04,-0.21
2024-01-01 00:00:17.375,-0.05,-0.29
2024-01-01 00:00:17.383,0.08,-0.34
2024-01-01 00:00:17.391,0.44,0.81
2024-01-01 00:00:17.398,0.77,3.8
2024-01-01 00:00:17.406,-0.85,5.11
2024-01-01 00:00:17.414,-1.85,5.11
2024-01-01 00:00:17.422,-1.67,1.51
2024-01-01 00:00:17.430,-1.23,-0.63
2024-01-01 00:00:17.438,-0.5,-0.48
2024-01-01 00:00:17.445,-0.14,-0.25
2024-01-01 00:00:17.453,0.01,-0.32
2024-01-01 00:00:17.461,0.02,-0.37
2024-01-01 00:00:17.469,0.05,-0.38
2024-01-01 00:00:17.477,0.08,-0.36
2024-01-01 00:00:17.484,0.09,-0.37
2024-01-01 00:00:17.492,0.1,-0.38
2024-01-01 00:00:17.500,0.11,-0.35
2024-01-01 00:00:17.508,0.12,-0.33
2024-01-01 00:00:17.516,0.14,-0.34
2024-01-01 00:00:17.523,0.14,-0.34
2024-01-01 00:00:17.531,0.15,-0.31
2024-01-01 00:00:17.539,0.17,-0.32
2024-01-01 00:00:17.547,0.18,-0.33
2024-01-01 00:00:17.555,0.19,-0.28
2024-01-01 00:00:17.563,0.22,-0.3
2024-01-01 00:00:17.570,0.23,-0.29
2024-01-01 00:00:17.578,0.25,-0.29
2024-01-01 00:00:17.586,0.26,-0.26
2024-01-01 00:00:17.594,0.28,-0.3
2024-01-01 00:00:17.602,0.3,-0.31
2024-01-01 00:00:17.609,0.3,-0.31
2024-01-01 00:00:17.617,0.31,-0.32
2024-01-01 00:00:17.625,0.31,-0.36
2024-01-01 00:00:17.633,0.29,-0.4
2024-01-01 00:00:17.641,0.27,-0.41
2024-01-01 00:00:17.648,0.25,-0.45
2024-01-01 00:00:17.656,0.21,-0.48
2024-01-01 00:00:17.664,0.16,-0.44
2024-01-01 00:00:17.672,0.13,-0.39
2024-01-01 00:00:17.680,0.09,-0.35
2024-01-01 00:00:17.688,0.08,-0.28
2024-01-01 00:00:17.695,0.04,-0.18
2024-01-01 00:00:17.703,0.06,-0.13
2024-01-01 00:00:17.711,0.06,-0.09
2024-01-01 00:00:17.719,0.06,-0.08
2024-01-01 00:00:17.727,0.08,-0.05
2024-01-01 00:00:17.734,0.09,-0.05
2024-01-01 00:00:17.742,0.07,-0.08
2024-01-01 00:00:17.750,0.08,-0.05
2024-01-01 00:00:17.758,0.07,-0.06
2024-01-01 00:00:17.766,0.07,-0.06
2024-01-01 00:00:17.773,0.07,-0.08
2024-01-01 00:00:17.781,0.08,-0.06
2024-01-01 00:00:17.789,0.07,-0.08
2024-01-01 00:00:17.797,0.08,-0.11
2024-01-01 00:00:17.805,0.07,-0.08
2024-01-01 00:00:17.813,0.08,-0.08
2024-01-01 00:00:17.820,0.09,-0.1
2024-01-01 00:00:17.828,0.07,-0.12
2024-01-01 00:00:17.836,0.08,-0.1
2024-01-01 00:00:17.844,0.09,-0.13
2024-01-01 00:00:17.852,0.09,-0.15
2024-01-01 00:00:17.859,0.09,-0.14
2024-01-01 00:00:17.867,0.09,-0.14
2024-01-01 00:00:17.875,0.09,-0.16
2024-01-01 00:00:17.883,0.07,-0.18
2024-01-01 00:00:17.891,0.07,-0.16
2024-01-01 00:00:17.898,0.06,-0.16
2024-01-01 00:00:17.906,0.05,-0.18
2024-01-01 00:00:17.914,0.03,-0.16
2024-01-01 00:00:17.922,0.04,-0.15
2024-01-01 00:00:17.930,0.02,-0.17
2024-01-01 00:00:17.938,0.02,-0.19
2024-01-01 00:00:17.945,0.01,-0.16
2024-01-01 00:00:17.953,0.01,-0.17
2024-01-01 00:00:17.961,0.0,-0.19
2024-01-01 00:00:17.969,0.0,-0.18
2024-01-01 00:00:17.977,0.0,-0.16
2024-01-01 00:00:17.984,0.0,-0.18
2024-01-01 00:00:17.992,0.0,-0.19
2024-01-01 00:00:18.000,-0.02,-0.17
2024-01-01 00:00:18.008,-0.01,-0.15
2024-01-01 00:00:18.016,-0.02,-0.19
2024-01-01 00:00:18.023,-0.01,-0.18
2024-01-01 00:00:18.031,0.0,-0.15
2024-01-01 00:00:18.039,0.04,-0.11
2024-01-01 00:00:18.047,0.06,-0.12
2024-01-01 00:00:18.055,0.04,-0.05
2024-01-01 00:00:18.063,0.12,-0.02
2024-01-01 00:00:18.070,0.12,0.11
2024-01-01 00:00:18.078,0.18,0.22
2024-01-01 00:00:18.086,0.08,0.2
2024-01-01 00:00:18.094,0.04,0.21
2024-01-01 00:00:18.102,-0.05,0.09
2024-01-01 00:00:18.109,-0.14,0.04
2024-01-01 00:00:18.117,-0.11,0.06
2024-01-01 00:00:18.125,-0.12,-0.03
2024-01-01 00:00:18.133,-0.1,-0.19
2024-01-01 00:00:18.141,-0.09,-0.19
2024-01-01 00:00:18.148,-0.1,-0.18
2024-01-01 00:00:18.156,-0.09,-0.19
2024-01-01 00:00:18.164,-0.11,-0.17
2024-01-01 00:00:18.172,-0.09,-0.35
2024-01-01 00:00:18.180,0.26,0.32
2024-01-01 00:00:18.188,0.45,2.34
2024-01-01 00:00:18.195,0.37,5.11
2024-01-01 00:00:18.203,-1.82,5.11
2024-01-01 00:00:18.211,-1.94,3.36
2024-01-01 00:00:18.219,-1.19,-0.59
2024-01-01 00:00:18.227,-0.84,-0.37
2024-01-01 00:00:18.234,-0.36,-0.26
2024-01-01 00:00:18.242,-0.03,-0.27
2024-01-01 00:00:18.250,-0.04,-0.31
2024-01-01 00:00:18.258,-0.02,-0.32
2024-01-01 00:00:18.266,0.0,-0.35
2024-01-01 00:00:18.273,0.04,-0.35
2024-01-01 00:00:18.281,0.05,-0.32
2024-01-01 00:00:18.289,0.06,-0.33
2024-01-01 00:00:18.297,0.08,-0.34
2024-01-01 00:00:18.305,0.07,-0.31
2024-01-01 00:00:18.313,0.08,-0.3
2024-01-01 00:00:18.320,0.09,-0.31
2024-01-01 00:00:18.328,0.1,-0.32
2024-01-01 00:00:18.336,0.11,-0.28
2024-01-01 00:00:18.344,0.14,-0.29
2024-01-01 00:00:18.352,0.14,-0.3
2024-01-01 00:00:18.359,0.15,-0.28
2024-01-01 00:00:18.367,0.17,-0.26
2024-01-01 00:00:18.375,0.19,-0.28
2024-01-01 00:00:18.383,0.19,-0.3
2024-01-01 00:00:18.391,0.21,-0.28
2024-01-01 00:00:18.398,0.22,-0.3
2024-01-01 00:00:18.406,0.22,-0.33
2024-01-01 00:00:18.414,0.21,-0.35
2024-01-01 00:00:18.422,0.2,-0.37
2024-01-01 00:00:18.430,0.19,-0.41
2024-01-01 00:00:18.438,0.16,-0.46
2024-01-01 00:00:18.445,0.13,-0.45
2024-01-01 00:00:18.453,0.1,-0.46
2024-01-01 00:00:18.461,0.05,-0.44
2024-01-01 00:00:18.469,0.01,-0.38
2024-01-01 00:00:18.477,0.01,-0.28
2024-01-01 00:00:18.484,-0.01,-0.21
2024-01-01 00:00:18.492,-0.01,-0.15
2024-01-01 00:00:18.500,-0.01,-0.08
2024-01-01 00:00:18.508,0.01,-0.06
2024-01-01 00:00:18.516,0.01,-0.08
2024-01-01 00:00:18.523,0.01,-0.07
2024-01-01 00:00:18.531,0.01,-0.06
2024-01-01 00:00:18.539,0.02,-0.08
2024-01-01 00:00:18.547,0.0,-0.1
2024-01-01 00:00:18.555,0.01,-0.07
2024-01-01 00:00:18.563,0.01,-0.07
2024-01-01 00:00:18.570,0.01,-0.09
2024-01-01 00:00:18.578,0.01,-0.09
2024-01-01 00:00:18.586,0.01,-0.1
2024-01-01 00:00:18.594,0.02,-0.12
2024-01-01 00:00:18.602,0.03,-0.15
2024-01-01 00:00:18.609,0.04,-0.11
2024-01-01 00:00:18.617,0.03,-0.1
2024-01-01 00:00:18.625,0.04,-0.14
2024-01-01 00:00:18.633,0.03,-0.14
2024-01-01 00:00:18.641,0.04,-0.11
2024-01-01 00:00:18.648,0.05,-0.14
2024-01-01 00:00:18.656,0.04,-0.16
2024-01-01 00:00:18.664,0.02,-0.14
2024-01-01 00:00:18.672,0.03,-0.16
2024-01-01 00:00:18.680,0.03,-0.16
2024-01-01 00:00:18.688,0.02,-0.18
2024-01-01 00:00:18.695,0.02,-0.13
2024-01-01 00:00:18.703,0.03,-0.16
2024-01-01 00:00:18.711,0.01,-0.17
2024-01-01 00:00:18.719,0.01,-0.16
2024-01-01 00:00:18.727,0.01,-0.16
2024-01-01 00:00:18.734,0.0,-0.17
2024-01-01 00:00:18.742,0.0,-0.19
2024-01-01 00:00:18.750,-0.01,-0.17
2024-01-01 00:00:18.758,-0.01,-0.17
2024-01-01 00:00:18.766,-0.01,-0.2
2024-01-01 00:00:18.773,-0.03,-0.17
2024-01-01 00:00:18.781,-0.01,-0.17
2024-01-01 00:00:18.789,-0.02,-0.19
2024-01-01 00:00:18.797,-0.02,-0.2
2024-01-01 00:00:18.805,-0.03,-0.18
2024-01-01 00:00:18.813,-0.01,-0.17
2024-01-01 00:00:18.820,0.04,-0.13
2024-01-01 00:00:18.828,0.05,-0.11
2024-01-01 00:00:18.836,0.05,-0.05
2024-01-01 00:00:18.844,0.1,-0.03
2024-01-01 00:00:18.852,0.2,0.2
2024-01-01 00:00:18.859,0.14,0.23
2024-01-01 00:00:18.867,0.09,0.23
2024-01-01 00:00:18.875,0.05,0.15
2024-01-01 00:00:18.883,-0.08,0.07
2024-01-01 00:00:18.891,-0.09,0.06
2024-01-01 00:00:18.898,-0.1,0.0
2024-01-01 00:00:18.906,-0.09,-0.16
2024-01-01 00:00:18.914,-0.08,-0.19
2024-01-01 00:00:18.922,-0.09,-0.21
2024-01-01 00:00:18.930,-0.1,-0.21
2024-01-01 00:00:18.938,-0.1,-0.2
2024-01-01 00:00:18.945,-0.1,-0.25
2024-01-01 00:00:18.953,0.05,-0.15
2024-01-01 00:00:18.961,0.38,1.16
2024-01-01 00:00:18.969,0.72,4.34
2024-01-01 00:00:18.977,-1.19,5.11
2024-01-01 00:00:18.984,-1.87,4.69
2024-01-01 00:00:18.992,-1.49,0.65
2024-01-01 00:00:19.000,-1.23,-0.48
2024-01-01 00:00:19.008,-0.5,-0.41
2024-01-01 00:00:19.016,-0.14,-0.26
2024-01-01 00:00:19.023,-0.07,-0.33
2024-01-01 00:00:19.031,-0.06,-0.36
2024-01-01 00:00:19.039,-0.05,-0.38
2024-01-01 00:00:19.047,-0.01,-0.39
2024-01-01 00:00:19.055,0.01,-0.38
2024-01-01 00:00:19.063,0.02,-0.36
2024-01-01 00:00:19.070,0.01,-0.38
2024-01-01 00:00:19.078,0.03,-0.37
2024-01-01 00:00:19.086,0.04,-0.36
2024-01-01 00:00:19.094,0.05,-0.38
2024-01-01 00:00:19.102,0.07,-0.39
2024-01-01 00:00:19.109,0.07,-0.35
2024-01-01 00:00:19.117,0.09,-0.35
2024-01-01 00:00:19.125,0.1,-0.37
2024-01-01 00:00:19.133,0.1,-0.36
2024-01-01 00:00:19.141,0.12,-0.34
2024-01-01 00:00:19.148,0.14,-0.34
2024-01-01 00:00:19.156,0.15,-0.34
2024-01-01 00:00:19.164,0.16,-0.33
2024-01-01 00:00:19.172,0.17,-0.34
2024-01-01 00:00:19.180,0.14,-0.37
2024-01-01 00:00:19.188,0.16,-0.38
2024-01-01 00:00:19.195,0.16,-0.36
2024-01-01 00:00:19.203,0.14,-0.42
2024-01-01 00:00:19.211,0.11,-0.45
2024-01-01 00:00:19.219,0.1,-0.47
2024-01-01 00:00:19.227,0.08,-0.48
2024-01-01 00:00:19.234,0.06,-0.49
2024-01-01 00:00:19.242,0.02,-0.44
2024-01-01 00:00:19.250,-0.01,-0.35
2024-01-01 00:00:19.258,0.0,-0.25
2024-01-01 00:00:19.266,0.0,-0.2
2024-01-01 00:00:19.273,0.0,-0.15
2024-01-01 00:00:19.281,0.0,-0.1
2024-01-01 00:00:19.289,0.0,-0.1
2024-01-01 00:00:19.297,0.02,-0.13
2024-01-01 00:00:19.305,0.01,-0.09
2024-01-01 00:00:19.313,0.04,-0.11
2024-01-01 00:00:19.320,0.03,-0.12
2024-01-01 00:00:19.328,0.03,-0.14
2024-01-01 00:00:19.336,0.01,-0.1
2024-01-01 00:00:19.344,0.04,-0.12
2024-01-01 00:00:19.352,0.03,-0.14
2024-01-01 00:00:19.359,0.03,-0.12
2024-01-01 00:00:19.367,0.03,-0.14
2024-01-01 00:00:19.375,0.03,-0.16
2024-01-01 00:00:19.383,0.02,-0.2
2024-01-01 00:00:19.391,0.03,-0.18
2024-01-01 00:00:19.398,0.03,-0.18
2024-01-01 00:00:19.406,0.02,-0.19
2024-01-01 00:00:19.414,0.03,-0.19
2024-01-01 00:00:19.422,0.03,-0.18
2024-01-01 00:00:19.430,0.01,-0.22
2024-01-01 00:00:19.438,0.02,-0.22
2024-01-01 00:00:19.445,-0.01,-0.2
2024-01-01 00:00:19.453,0.02,-0.2
2024-01-01 00:00:19.461,0.01,-0.22
2024-01-01 00:00:19.469,-0.01,-0.23
2024-01-01 00:00:19.477,-0.02,-0.21
2024-01-01 00:00:19.484,-0.02,-0.2
2024-01-01 00:00:19.492,-0.03,-0.23
2024-01-01 00:00:19.500,-0.04,-0.22
2024-01-01 00:00:19.508,-0.04,-0.24
2024-01-01 00:00:19.516,-0.04,-0.24
2024-01-01 00:00:19.523,-0.06,-0.24
2024-01-01 00:00:19.531,-0.04,-0.24
2024-01-01 00:00:19.539,-0.06,-0.23
2024-01-01 00:00:19.547,-0.04,-0.26
2024-01-01 00:00:19.555,-0.06,-0.24
2024-01-01 00:00:19.563,-0.06,-0.23
2024-01-01 00:00:19.570,-0.06,-0.25
2024-01-01 00:00:19.578,-0.06,-0.28
2024-01-01 00:00:19.586,-0.07,-0.22
2024-01-01 00:00:19.594,-0.06,-0.25
2024-01-01 00:00:19.602,-0.02,-0.22
2024-01-01 00:00:19.609,0.01,-0.16
2024-01-01 00:00:19.617,-0.01,-0.16
2024-01-01 00:00:19.625,0.07,-0.16
2024-01-01 00:00:19.633,0.09,0.01
2024-01-01 00:00:19.641,0.12,0.14
2024-01-01 00:00:19.648,0.1,0.1
2024-01-01 00:00:19.656,0.03,0.12
2024-01-01 00:00:19.664,-0.02,-0.02
2024-01-01 00:00:19.672,-0.11,-0.06
2024-01-01 00:00:19.680,-0.13,-0.1
2024-01-01 00:00:19.688,-0.11,-0.21
2024-01-01 00:00:19.695,-0.12,-0.29
2024-01-01 00:00:19.703,-0.12,-0.32
2024-01-01 00:00:19.711,-0.13,-0.35
2024-01-01 00:00:19.719,-0.12,-0.34
2024-01-01 00:00:19.727,-0.15,-0.31
2024-01-01 00:00:19.734,-0.15,-0.46
2024-01-01 00:00:19.742,0.15,0.32
2024-01-01 00:00:19.750,0.45,2.26
2024-01-01 00:00:19.758,0.57,5.11
2024-01-01 00:00:19.766,-1.34,5.11
2024-01-01 00:00:19.773,-1.58,3.64
2024-01-01 00:00:19.781,-1.2,-0.59
2024-01-01 00:00:19.789,-0.86,-0.57
2024-01-01 00:00:19.797,-0.57,-0.53
2024-01-01 00:00:19.805,-0.13,-0.4
2024-01-01 00:00:19.813,-0.1,-0.46
2024-01-01 00:00:19.820,-0.06,-0.46
2024-01-01 00:00:19.828,-0.07,-0.49
2024-01-01 00:00:19.836,-0.04,-0.48
2024-01-01 00:00:19.844,-0.04,-0.43
2024-01-01 00:00:19.852,-0.01,-0.47
2024-01-01 00:00:19.859,-0.01,-0.48
2024-01-01 00:00:19.867,0.01,-0.43
2024-01-01 00:00:19.875,0.01,-0.43
2024-01-01 00:00:19.883,0.02,-0.43
2024-01-01 00:00:19.891,0.03,-0.41
2024-01-01 00:00:19.898,0.05,-0.4
2024-01-01 00:00:19.906,0.06,-0.43
2024-01-01 00:00:19.914,0.06,-0.39
2024-01-01 00:00:19.922,0.09,-0.34
2024-01-01 00:00:19.930,0.1,-0.35
2024-01-01 00:00:19.938,0.1,-0.34
2024-01-01 00:00:19.945,0.12,-0.34
2024-01-01 00:00:19.953,0.12,-0.31
2024-01-01 00:00:19.961,0.13,-0.32
2024-01-01 00:00:19.969,0.13,-0.34
2024-01-01 00:00:19.977,0.12,-0.31
2024-01-01 00:00:19.984,0.16,-0.31
2024-01-01 00:00:19.992,0.14,-0.36
2024-01-01 00:00:20.000,0.12,-0.37
2024-01-01 00:00:20.008,0.09,-0.38
2024-01-01 00:00:20.016,0.08,-0.41
2024-01-01 00:00:20.023,0.07,-0.4
2024-01-01 00:00:20.031,0.02,-0.33
2024-01-01 00:00:20.039,0.01,-0.3
2024-01-01 00:00:20.047,0.0,-0.28
2024-01-01 00:00:20.055,-0.02,-0.25
2024-01-01 00:00:20.063,-0.03,-0.22
2024-01-01 00:00:20.070,-0.02,-0.23
2024-01-01 00:00:20.078,-0.03,-0.24
2024-01-01 00:00:20.086,-0.03,-0.24
2024-01-01 00:00:20.094,-0.01,-0.23
2024-01-01 00:00:20.102,0.0,-0.28
2024-01-01 00:00:20.109,-0.02,-0.29
2024-01-01 00:00:20.117,-0.01,-0.27
2024-01-01 00:00:20.125,0.02,-0.28
2024-01-01 00:00:20.133,0.02,-0.32
2024-01-01 00:00:20.141,0.02,-0.3
2024-01-01 00:00:20.148,0.02,-0.29
2024-01-01 00:00:20.156,0.03,-0.31
2024-01-01 00:00:20.164,0.02,-0.31
2024-01-01 00:00:20.172,0.01,-0.28
2024-01-01 00:00:20.180,0.02,-0.28
2024-01-01 00:00:20.188,0.02,-0.28
2024-01-01 00:00:20.195,0.01,-0.27
2024-01-01 00:00:20.203,0.01,-0.27
2024-01-01 00:00:20.211,0.0,-0.28
2024-01-01 00:00:20.219,-0.01,-0.3
2024-01-01 00:00:20.227,-0.01,-0.27
2024-01-01 00:00:20.234,0.01,-0.28
2024-01-01 00:00:20.242,0.0,-0.28
2024-01-01 00:00:20.250,-0.02,-0.28
2024-01-01 00:00:20.258,0.0,-0.25
2024-01-01 00:00:20.266,-0.02,-0.27
2024-01-01 00:00:20.273,-0.02,-0.3
2024-01-01 00:00:20.281,-0.03,-0.27
2024-01-01 00:00:20.289,-0.02,-0.28
2024-01-01 00:00:20.297,-0.02,-0.3
2024-01-01 00:00:20.305,-0.03,-0.31
2024-01-01 00:00:20.313,-0.02,-0.29
2024-01-01 00:00:20.320,-0.04,-0.3
2024-01-01 00:00:20.328,-0.02,-0.31
2024-01-01 00:00:20.336,-0.03,-0.28
2024-01-01 00:00:20.344,-0.02,-0.27
2024-01-01 00:00:20.352,-0.02,-0.27
2024-01-01 00:00:20.359,0.04,-0.23
2024-01-01 00:00:20.367,0.02,-0.19
2024-01-01 00:00:20.375,0.07,-0.16
2024-01-01 00:00:20.383,0.09,-0.1
2024-01-01 00:00:20.391,0.18,0.12
2024-01-01 00:00:20.398,0.12,0.09
2024-01-01 00:00:20.406,0.1,0.1
2024-01-01 00:00:20.414,0.03,-0.02
2024-01-01 00:00:20.422,-0.07,-0.04
2024-01-01 00:00:20.430,-0.08,-0.05
2024-01-01 00:00:20.438,-0.08,-0.14
2024-01-01 00:00:20.445,-0.09,-0.28
2024-01-01 00:00:20.453,-0.07,-0.3
2024-01-01 00:00:20.461,-0.08,-0.32
2024-01-01 00:00:20.469,-0.08,-0.32
2024-01-01 00:00:20.477,-0.09,-0.29
2024-01-01 00:00:20.484,-0.06,-0.46
2024-01-01 00:00:20.492,0.23,0.02
2024-01-01 00:00:20.500,0.54,1.72
2024-01-01 00:00:20.508,0.69,5.02
2024-01-01 00:00:20.516,-1.64,5.11
2024-01-01 00:00:20.523,-1.92,4.1
2024-01-01 00:00:20.531,-1.37,-0.25
2024-01-01 00:00:20.539,-1.1,-0.47
2024-01-01 00:00:20.547,-0.48,-0.46
2024-01-01 00:00:20.555,-0.05,-0.35
2024-01-01 00:00:20.563,-0.03,-0.39
2024-01-01 00:00:20.570,0.0,-0.41
2024-01-01 00:00:20.578,0.02,-0.44
2024-01-01 00:00:20.586,0.02,-0.42
2024-01-01 00:00:20.594,0.06,-0.42
2024-01-01 00:00:20.602,0.07,-0.43
2024-01-01 00:00:20.609,0.07,-0.44
2024-01-01 00:00:20.617,0.07,-0.39
2024-01-01 00:00:20.625,0.09,-0.39
2024-01-01 00:00:20.633,0.1,-0.4
2024-01-01 00:00:20.641,0.12,-0.4
2024-01-01 00:00:20.648,0.14,-0.37
2024-01-01 00:00:20.656,0.16,-0.39
2024-01-01 00:00:20.664,0.18,-0.39
2024-01-01 00:00:20.672,0.19,-0.34
2024-01-01 00:00:20.680,0.22,-0.35
2024-01-01 00:00:20.688,0.24,-0.34
2024-01-01 00:00:20.695,0.25,-0.32
2024-01-01 00:00:20.703,0.27,-0.32
2024-01-01 00:00:20.711,0.29,-0.33
2024-01-01 00:00:20.719,0.29,-0.36
2024-01-01 00:00:20.727,0.29,-0.34
2024-01-01 00:00:20.734,0.29,-0.38
2024-01-01 00:00:20.742,0.26,-0.41
2024-01-01 00:00:20.750,0.25,-0.43
2024-01-01 00:00:20.758,0.21,-0.43
2024-01-01 00:00:20.766,0.17,-0.45
2024-01-01 00:00:20.773,0.12,-0.43
2024-01-01 00:00:20.781,0.07,-0.35
2024-01-01 00:00:20.789,0.04,-0.26
2024-01-01 00:00:20.797,0.04,-0.22
2024-01-01 00:00:20.805,0.01,-0.16
2024-01-01 00:00:20.813,0.02,-0.09
2024-01-01 00:00:20.820,0.02,-0.09
2024-01-01 00:00:20.828,0.03,-0.11
2024-01-01 00:00:20.836,0.01,-0.06
2024-01-01 00:00:20.844,0.04,-0.08
2024-01-01 00:00:20.852,0.03,-0.11
2024-01-01 00:00:20.859,0.04,-0.1
2024-01-01 00:00:20.867,0.03,-0.09
2024-01-01 00:00:20.875,0.03,-0.11
2024-01-01 00:00:20.883,0.04,-0.14
2024-01-01 00:00:20.891,0.03,-0.1
2024-01-01 00:00:20.898,0.05,-0.12
2024-01-01 00:00:20.906,0.06,-0.13
2024-01-01 00:00:20.914,0.06,-0.16
2024-01-01 00:00:20.922,0.06,-0.13
2024-01-01 00:00:20.930,0.07,-0.14
2024-01-01 00:00:20.938,0.07,-0.17
2024-01-01 00:00:20.945,0.07,-0.15
2024-01-01 00:00:20.953,0.07,-0.15
2024-01-01 00:00:20.961,0.08,-0.18
2024-01-01 00:00:20.969,0.06,-0.2
2024-01-01 00:00:20.977,0.06,-0.17
2024-01-01 00:00:20.984,0.06,-0.19
2024-01-01 00:00:20.992,0.05,-0.19
2024-01-01 00:00:21.000,0.05,-0.17
2024-01-01 00:00:21.008,0.05,-0.16
2024-01-01 00:00:21.016,0.04,-0.18
2024-01-01 00:00:21.023,0.04,-0.2
2024-01-01 00:00:21.031,0.03,-0.16
2024-01-01 00:00:21.039,0.03,-0.15
2024-01-01 00:00:21.047,0.02,-0.18
2024-01-01 00:00:21.055,0.0,-0.17
2024-01-01 00:00:21.063,0.02,-0.15
2024-01-01 00:00:21.070,0.0,-0.18
2024-01-01 00:00:21.078,0.0,-0.19
2024-01-01 00:00:21.086,-0.01,-0.16
2024-01-01 00:00:21.094,0.0,-0.16
2024-01-01 00:00:21.102,-0.02,-0.18
2024-01-01 00:00:21.109,0.0,-0.17
2024-01-01 00:00:21.117,0.0,-0.15
2024-01-01 00:00:21.125,0.04,-0.11
2024-01-01 00:00:21.133,0.06,-0.12
2024-01-01 00:00:21.141,0.04,-0.04
2024-01-01 00:00:21.148,0.09,-0.02
2024-01-01 00:00:21.156,0.19,0.19
2024-01-01 00:00:21.164,0.14,0.23
2024-01-01 00:00:21.172,0.1,0.25
2024-01-01 00:00:21.180,0.06,0.16
2024-01-01 00:00:21.188,-0.06,0.05
2024-01-01 00:00:21.195,-0.11,0.05
2024-01-01 00:00:21.203,-0.08,0.0
2024-01-01 00:00:21.211,-0.07,-0.15
2024-01-01 00:00:21.219,-0.07,-0.22
2024-01-01 00:00:21.227,-0.08,-0.21
2024-01-01 00:00:21.234,-0.08,-0.21
2024-01-01 00:00:21.242,-0.09,-0.2
2024-01-01 00:00:21.250,-0.09,-0.24
2024-01-01 00:00:21.258,0.04,-0.18
2024-01-01 00:00:21.266,0.41,1.07
2024-01-01 00:00:21.273,0.71,4.19
2024-01-01 00:00:21.281,-1.08,5.11
2024-01-01 00:00:21.289,-1.98,5.02
2024-01-01 00:00:21.297,-1.71,1.11
2024-01-01 00:00:21.305,-1.3,-0.57
2024-01-01 00:00:21.313,-0.5,-0.4
2024-01-01 00:00:21.320,-0.15,-0.23
2024-01-01 00:00:21.328,-0.03,-0.32
2024-01-01 00:00:21.336,-0.03,-0.33
2024-01-01 00:00:21.344,0.01,-0.33
2024-01-01 00:00:21.352,0.02,-0.34
2024-01-01 00:00:21.359,0.05,-0.33
2024-01-01 00:00:21.367,0.07,-0.31
2024-01-01 00:00:21.375,0.08,-0.32
2024-01-01 00:00:21.383,0.09,-0.33
2024-01-01 00:00:21.391,0.09,-0.29
2024-01-01 00:00:21.398,0.1,-0.28
2024-01-01 00:00:21.406,0.12,-0.29
2024-01-01 00:00:21.414,0.13,-0.28
2024-01-01 00:00:21.422,0.14,-0.27
2024-01-01 00:00:21.430,0.17,-0.27
2024-01-01 00:00:21.438,0.18,-0.29
2024-01-01 00:00:21.445,0.18,-0.25
2024-01-01 00:00:21.453,0.2,-0.25
2024-01-01 00:00:21.461,0.22,-0.27
2024-01-01 00:00:21.469,0.24,-0.29
2024-01-01 00:00:21.477,0.26,-0.26
2024-01-01 00:00:21.484,0.27,-0.29
2024-01-01 00:00:21.492,0.25,-0.31
2024-01-01 00:00:21.500,0.23,-0.32
2024-01-01 00:00:21.508,0.24,-0.34
2024-01-01 00:00:21.516,0.21,-0.39
2024-01-01 00:00:21.523,0.18,-0.42
2024-01-01 00:00:21.531,0.15,-0.39
2024-01-01 00:00:21.539,0.1,-0.38
2024-01-01 00:00:21.547,0.06,-0.35
2024-01-01 00:00:21.555,0.03,-0.25
2024-01-01 00:00:21.563,0.01,-0.18
2024-01-01 00:00:21.570,0.0,-0.13
2024-01-01 00:00:21.578,0.0,-0.1
2024-01-01 00:00:21.586,0.0,-0.03
2024-01-01 00:00:21.594,0.02,-0.02
2024-01-01 00:00:21.602,0.02,-0.05
2024-01-01 00:00:21.609,0.01,-0.03
2024-01-01 00:00:21.617,0.03,-0.02
2024-01-01 00:00:21.625,0.04,-0.05
2024-01-01 00:00:21.633,0.02,-0.07
2024-01-01 00:00:21.641,0.01,-0.04
2024-01-01 00:00:21.648,0.03,-0.06
2024-01-01 00:00:21.656,0.02,-0.09
2024-01-01 00:00:21.664,0.02,-0.09
2024-01-01 00:00:21.672,0.04,-0.08
2024-01-01 00:00:21.680,0.04,-0.1
2024-01-01 00:00:21.688,0.05,-0.12
2024-01-01 00:00:21.695,0.05,-0.1
2024-01-01 00:00:21.703,0.06,-0.11
2024-01-01 00:00:21.711,0.06,-0.13
2024-01-01 00:00:21.719,0.07,-0.13
2024-01-01 00:00:21.727,0.06,-0.11
2024-01-01 00:00:21.734,0.06,-0.14
2024-01-01 00:00:21.742,0.06,-0.17
2024-01-01 00:00:21.750,0.06,-0.14
2024-01-01 00:00:21.758,0.06,-0.14
2024-01-01 00:00:21.766,0.06,-0.15
2024-01-01 00:00:21.773,0.03,-0.17
2024-01-01 00:00:21.781,0.04,-0.13
2024-01-01 00:00:21.789,0.03,-0.14
2024-01-01 00:00:21.797,0.03,-0.16
2024-01-01 00:00:21.805,0.01,-0.15
2024-01-01 00:00:21.813,0.01,-0.15
2024-01-01 00:00:21.820,0.01,-0.17
2024-01-01 00:00:21.828,0.02,-0.18
2024-01-01 00:00:21.836,-0.01,-0.13
2024-01-01 00:00:21.844,0.0,-0.15
2024-01-01 00:00:21.852,-0.01,-0.17
2024-01-01 00:00:21.859,-0.01,-0.17
2024-01-01 00:00:21.867,-0.01,-0.15
2024-01-01 00:00:21.875,0.01,-0.15
2024-01-01 00:00:21.883,0.02,-0.15
2024-01-01 00:00:21.891,0.06,-0.08
2024-01-01 00:00:21.898,0.04,-0.06
2024-01-01 00:00:21.906,0.1,-0.07
2024-01-01 00:00:21.914,0.18,0.16
2024-01-01 00:00:21.922,0.15,0.26
2024-01-01 00:00:21.930,0.13,0.23
2024-01-01 00:00:21.938,0.05,0.17
2024-01-01 00:00:21.945,-0.05,0.08
2024-01-01 00:00:21.953,-0.08,0.08
2024-01-01 00:00:21.961,-0.11,0.01
2024-01-01 00:00:21.969,-0.08,-0.13
2024-01-01 00:00:21.977,-0.09,-0.19
2024-01-01 00:00:21.984,-0.09,-0.2
2024-01-01 00:00:21.992,-0.1,-0.22
2024-01-01 00:00:22.000,-0.1,-0.19
2024-01-01 00:00:22.008,-0.11,-0.21
2024-01-01 00:00:22.016,-0.05,-0.32
2024-01-01 00:00:22.023,0.32,0.75
2024-01-01 00:00:22.031,0.56,3.63
2024-01-01 00:00:22.039,-0.61,5.11
2024-01-01 00:00:22.047,-1.93,5.11
2024-01-01 00:00:22.055,-1.86,1.86
2024-01-01 00:00:22.063,-1.27,-0.65
2024-01-01 00:00:22.070,-0.6,-0.44
2024-01-01 00:00:22.078,-0.25,-0.26
2024-01-01 00:00:22.086,-0.05,-0.29
2024-01-01 00:00:22.094,-0.04,-0.33
2024-01-01 00:00:22.102,0.0,-0.35
2024-01-01 00:00:22.109,0.0,-0.36
2024-01-01 00:00:22.117,0.04,-0.34
2024-01-01 00:00:22.125,0.04,-0.34
2024-01-01 00:00:22.133,0.06,-0.34
2024-01-01 00:00:22.141,0.05,-0.31
2024-01-01 00:00:22.148,0.08,-0.31
2024-01-01 00:00:22.156,0.1,-0.32
2024-01-01 00:00:22.164,0.1,-0.32
2024-01-01 00:00:22.172,0.09,-0.29
2024-01-01 00:00:22.180,0.11,-0.28
2024-01-01 00:00:22.188,0.13,-0.29
2024-01-01 00:00:22.195,0.13,-0.28
2024-01-01 00:00:22.203,0.15,-0.26
2024-01-01 00:00:22.211,0.16,-0.27
2024-01-01 00:00:22.219,0.18,-0.29
2024-01-01 00:00:22.227,0.19,-0.25
2024-01-01 00:00:22.234,0.2,-0.27
2024-01-01 00:00:22.242,0.2,-0.3
2024-01-01 00:00:22.250,0.2,-0.31
2024-01-01 00:00:22.258,0.18,-0.3
2024-01-01 00:00:22.266,0.17,-0.35
2024-01-01 00:00:22.273,0.14,-0.38
2024-01-01 00:00:22.281,0.11,-0.38
2024-01-01 00:00:22.289,0.09,-0.38
2024-01-01 00:00:22.297,0.04,-0.39
2024-01-01 00:00:22.305,0.02,-0.37
2024-01-01 00:00:22.313,-0.01,-0.27
2024-01-01 00:00:22.320,-0.03,-0.21
2024-01-01 00:00:22.328,-0.05,-0.16
2024-01-01 00:00:22.336,-0.03,-0.08
2024-01-01 00:00:22.344,-0.02,-0.04
2024-01-01 00:00:22.352,-0.01,-0.04
2024-01-01 00:00:22.359,-0.01,-0.05
2024-01-01 00:00:22.367,-0.01,-0.03
2024-01-01 00:00:22.375,-0.01,-0.03
2024-01-01 00:00:22.383,0.0,-0.06
2024-01-01 00:00:22.391,0.0,-0.07
2024-01-01 00:00:22.398,0.0,-0.06
2024-01-01 00:00:22.406,0.0,-0.09
2024-01-01 00:00:22.414,-0.01,-0.12
2024-01-01 00:00:22.422,0.0,-0.1
2024-01-01 00:00:22.430,0.01,-0.09
2024-01-01 00:00:22.438,0.02,-0.14
2024-01-01 00:00:22.445,0.01,-0.13
2024-01-01 00:00:22.453,0.03,-0.12
2024-01-01 00:00:22.461,0.03,-0.14
2024-01-01 00:00:22.469,0.02,-0.17
2024-01-01 00:00:22.477,0.02,-0.15
2024-01-01 00:00:22.484,0.03,-0.14
2024-01-01 00:00:22.492,0.02,-0.16
2024-01-01 00:00:22.500,0.02,-0.17
2024-01-01 00:00:22.508,0.02,-0.15
2024-01-01 00:00:22.516,0.02,-0.15
2024-01-01 00:00:22.523,0.01,-0.17
2024-01-01 00:00:22.531,-0.01,-0.15
2024-01-01 00:00:22.539,-0.01,-0.16
2024-01-01 00:00:22.547,0.0,-0.18
2024-01-01 00:00:22.555,0.0,-0.16
2024-01-01 00:00:22.563,-0.03,-0.16
2024-01-01 00:00:22.570,-0.01,-0.15
2024-01-01 00:00:22.578,-0.03,-0.18
2024-01-01 00:00:22.586,-0.04,-0.17
2024-01-01 00:00:22.594,-0.03,-0.15
2024-01-01 00:00:22.602,-0.04,-0.16
2024-01-01 00:00:22.609,-0.04,-0.18
2024-01-01 00:00:22.617,-0.06,-0.15
2024-01-01 00:00:22.625,-0.04,-0.16
2024-01-01 00:00:22.633,-0.05,-0.18
2024-01-01 00:00:22.641,-0.05,-0.18
2024-01-01 00:00:22.648,-0.05,-0.15
2024-01-01 00:00:22.656,-0.03,-0.16
2024-01-01 00:00:22.664,0.01,-0.14
2024-01-01 00:00:22.672,0.01,-0.1
2024-01-01 00:00:22.680,0.0,-0.06
2024-01-01 00:00:22.688,0.07,-0.06
2024-01-01 00:00:22.695,0.14,0.16
2024-01-01 00:00:22.703,0.12,0.22
2024-01-01 00:00:22.711,0.07,0.2
2024-01-01 00:00:22.719,0.04,0.14
2024-01-01 00:00:22.727,-0.06,0.05
2024-01-01 00:00:22.734,-0.12,0.04
2024-01-01 00:00:22.742,-0.12,-0.03
2024-01-01 00:00:22.750,-0.12,-0.16
2024-01-01 00:00:22.758,-0.12,-0.21
2024-01-01 00:00:22.766,-0.12,-0.25
2024-01-01 00:00:22.773,-0.14,-0.25
2024-01-01 00:00:22.781,-0.15,-0.24
2024-01-01 00:00:22.789,-0.15,-0.22
2024-01-01 00:00:22.797,-0.1,-0.3
2024-01-01 00:00:22.805,0.27,0.81
2024-01-01 00:00:22.813,0.51,3.57
2024-01-01 00:00:22.820,-0.28,5.11
2024-01-01 00:00:22.828,-1.83,5.11
2024-01-01 00:00:22.836,-1.72,1.89
2024-01-01 00:00:22.844,-1.26,-0.66
2024-01-01 00:00:22.852,-0.65,-0.49
2024-01-01 00:00:22.859,-0.31,-0.27
2024-01-01 00:00:22.867,-0.09,-0.34
2024-01-01 00:00:22.875,-0.08,-0.36
2024-01-01 00:00:22.883,-0.05,-0.39
2024-01-01 00:00:22.891,-0.03,-0.41
2024-01-01 00:00:22.898,-0.02,-0.38
2024-01-01 00:00:22.906,0.0,-0.36
2024-01-01 00:00:22.914,0.01,-0.39
2024-01-01 00:00:22.922,0.03,-0.36
2024-01-01 00:00:22.930,0.02,-0.36
2024-01-01 00:00:22.938,0.04,-0.36
2024-01-01 00:00:22.945,0.05,-0.36
2024-01-01 00:00:22.953,0.05,-0.33
2024-01-01 00:00:22.961,0.07,-0.31
2024-01-01 00:00:22.969,0.09,-0.32
2024-01-01 00:00:22.977,0.1,-0.31
2024-01-01 00:00:22.984,0.09,-0.3
2024-01-01 00:00:22.992,0.1,-0.32
2024-01-01 00:00:23.000,0.12,-0.31
2024-01-01 00:00:23.008,0.13,-0.28
2024-01-01 00:00:23.016,0.14,-0.32
2024-01-01 00:00:23.023,0.14,-0.34
2024-01-01 00:00:23.031,0.15,-0.32
2024-01-01 00:00:23.039,0.14,-0.32
2024-01-01 00:00:23.047,0.11,-0.36
2024-01-01 00:00:23.055,0.11,-0.38
2024-01-01 00:00:23.063,0.1,-0.41
2024-01-01 00:00:23.070,0.11,-0.4
2024-01-01 00:00:23.078,0.07,-0.43
2024-01-01 00:00:23.086,0.04,-0.4
2024-01-01 00:00:23.094,0.02,-0.31
2024-01-01 00:00:23.102,0.0,-0.25
2024-01-01 00:00:23.109,0.0,-0.22
2024-01-01 00:00:23.117,0.0,-0.16
2024-01-01 00:00:23.125,-0.03,-0.15
2024-01-01 00:00:23.133,-0.02,-0.17
2024-01-01 00:00:23.141,0.0,-0.18
2024-01-01 00:00:23.148,-0.02,-0.15
2024-01-01 00:00:23.156,0.0,-0.15
2024-01-01 00:00:23.164,0.0,-0.18
2024-01-01 00:00:23.172,-0.02,-0.18
2024-01-01 00:00:23.180,0.0,-0.18
2024-01-01 00:00:23.188,0.0,-0.21
2024-01-01 00:00:23.195,0.0,-0.23
2024-01-01 00:00:23.203,0.01,-0.2
2024-01-01 00:00:23.211,-0.01,-0.21
2024-01-01 00:00:23.219,0.02,-0.23
2024-01-01 00:00:23.227,0.01,-0.24
2024-01-01 00:00:23.234,0.01,-0.23
2024-01-01 00:00:23.242,0.0,-0.25
2024-01-01 00:00:23.250,0.01,-0.24
2024-01-01 00:00:23.258,0.01,-0.21
2024-01-01 00:00:23.266,0.0,-0.23
2024-01-01 00:00:23.273,0.01,-0.21
2024-01-01 00:00:23.281,-0.02,-0.23
2024-01-01 00:00:23.289,-0.02,-0.2
2024-01-01 00:00:23.297,-0.01,-0.24
2024-01-01 00:00:23.305,-0.03,-0.26
2024-01-01 00:00:23.313,-0.03,-0.22
2024-01-01 00:00:23.320,-0.04,-0.23
2024-01-01 00:00:23.328,-0.03,-0.25
2024-01-01 00:00:23.336,-0.05,-0.26
2024-01-01 00:00:23.344,-0.06,-0.23
2024-01-01 00:00:23.352,-0.05,-0.25
2024-01-01 00:00:23.359,-0.05,-0.3
2024-01-01 00:00:23.367,-0.09,-0.26
2024-01-01 00:00:23.375,-0.06,-0.25
2024-01-01 00:00:23.383,-0.07,-0.27
2024-01-01 00:00:23.391,-0.08,-0.3
2024-01-01 00:00:23.398,-0.07,-0.27
2024-01-01 00:00:23.406,-0.06,-0.24
2024-01-01 00:00:23.414,-0.03,-0.21
2024-01-01 00:00:23.422,-0.04,-0.17
2024-01-01 00:00:23.430,0.01,-0.14
2024-01-01 00:00:23.438,0.04,-0.03
2024-01-01 00:00:23.445,0.1,0.09
2024-01-01 00:00:23.453,0.07,0.09
2024-01-01 00:00:23.461,0.02,0.14
2024-01-01 00:00:23.469,-0.02,-0.01
2024-01-01 00:00:23.477,-0.13,-0.02
2024-01-01 00:00:23.484,-0.13,-0.08
2024-01-01 00:00:23.492,-0.13,-0.19
2024-01-01 00:00:23.500,-0.16,-0.33
2024-01-01 00:00:23.508,-0.17,-0.28
2024-01-01 00:00:23.516,-0.17,-0.3
2024-01-01 00:00:23.523,-0.16,-0.3
2024-01-01 00:00:23.531,-0.19,-0.3
2024-01-01 00:00:23.539,-0.17,-0.4
2024-01-01 00:00:23.547,0.14,0.62
2024-01-01 00:00:23.555,0.5,2.9
2024-01-01 00:00:23.563,0.25,5.11
2024-01-01 00:00:23.570,-1.55,5.11
2024-01-01 00:00:23.578,-1.6,2.85
2024-01-01 00:00:23.586,-1.33,-0.81
2024-01-01 00:00:23.594,-0.8,-0.6
2024-01-01 00:00:23.602,-0.51,-0.43
2024-01-01 00:00:23.609,-0.12,-0.41
2024-01-01 00:00:23.617,-0.13,-0.41
2024-01-01 00:00:23.625,-0.08,-0.44
2024-01-01 00:00:23.633,-0.07,-0.45
2024-01-01 00:00:23.641,-0.05,-0.44
2024-01-01 00:00:23.648,-0.03,-0.41
2024-01-01 00:00:23.656,-0.01,-0.42
2024-01-01 00:00:23.664,-0.01,-0.42
2024-01-01 00:00:23.672,0.01,-0.38
2024-01-01 00:00:23.680,0.03,-0.35
2024-01-01 00:00:23.688,0.03,-0.36
2024-01-01 00:00:23.695,0.05,-0.37
2024-01-01 00:00:23.703,0.07,-0.33
2024-01-01 00:00:23.711,0.08,-0.32
2024-01-01 00:00:23.719,0.1,-0.34
2024-01-01 00:00:23.727,0.14,-0.28
2024-01-01 00:00:23.734,0.14,-0.27
2024-01-01 00:00:23.742,0.17,-0.28
2024-01-01 00:00:23.750,0.19,-0.3
2024-01-01 00:00:23.758,0.21,-0.27
2024-01-01 00:00:23.766,0.23,-0.29
2024-01-01 00:00:23.773,0.24,-0.31
2024-01-01 00:00:23.781,0.24,-0.3
2024-01-01 00:00:23.789,0.24,-0.34
2024-01-01 00:00:23.797,0.22,-0.38
2024-01-01 00:00:23.805,0.21,-0.43
2024-01-01 00:00:23.813,0.18,-0.4
2024-01-01 00:00:23.820,0.15,-0.4
2024-01-01 00:00:23.828,0.11,-0.38
2024-01-01 00:00:23.836,0.09,-0.32
2024-01-01 00:00:23.844,0.07,-0.26
2024-01-01 00:00:23.852,0.04,-0.2
2024-01-01 00:00:23.859,0.03,-0.19
2024-01-01 00:00:23.867,0.01,-0.13
2024-01-01 00:00:23.875,0.02,-0.12
2024-01-01 00:00:23.883,0.02,-0.14
2024-01-01 00:00:23.891,0.03,-0.13
2024-01-01 00:00:23.898,0.02,-0.13
2024-01-01 00:00:23.906,0.03,-0.15
2024-01-01 00:00:23.914,0.02,-0.17
2024-01-01 00:00:23.922,0.03,-0.13
2024-01-01 00:00:23.930,0.06,-0.14
2024-01-01 00:00:23.938,0.07,-0.18
2024-01-01 00:00:23.945,0.05,-0.17
2024-01-01 00:00:23.953,0.07,-0.19
2024-01-01 00:00:23.961,0.07,-0.19
2024-01-01 00:00:23.969,0.07,-0.21
2024-01-01 00:00:23.977,0.06,-0.18
2024-01-01 00:00:23.984,0.06,-0.19
2024-01-01 00:00:23.992,0.07,-0.21
2024-01-01 00:00:24.000,0.04,-0.21
2024-01-01 00:00:24.008,0.05,-0.19
2024-01-01 00:00:24.016,0.02,-0.2
2024-01-01 00:00:24.023,0.02,-0.22
2024-01-01 00:00:24.031,0.01,-0.18
2024-01-01 00:00:24.039,0.02,-0.17
2024-01-01 00:00:24.047,0.01,-0.19
2024-01-01 00:00:24.055,0.0,-0.19
2024-01-01 00:00:24.063,-0.01,-0.18
2024-01-01 00:00:24.070,-0.01,-0.18
2024-01-01 00:00:24.078,-0.02,-0.21
2024-01-01 00:00:24.086,-0.03,-0.18
2024-01-01 00:00:24.094,-0.01,-0.2
2024-01-01 00:00:24.102,-0.02,-0.21
2024-01-01 00:00:24.109,-0.02,-0.21
2024-01-01 00:00:24.117,-0.03,-0.18
2024-01-01 00:00:24.125,-0.02,-0.19
2024-01-01 00:00:24.133,-0.04,-0.21
2024-01-01 00:00:24.141,-0.03,-0.21
2024-01-01 00:00:24.148,-0.03,-0.2
2024-01-01 00:00:24.156,-0.02,-0.21
2024-01-01 00:00:24.164,-0.03,-0.21
2024-01-01 00:00:24.172,-0.02,-0.14
2024-01-01 00:00:24.180,0.04,-0.1
2024-01-01 00:00:24.188,0.01,-0.11
2024-01-01 00:00:24.195,0.07,-0.06
2024-01-01 00:00:24.203,0.1,0.11
2024-01-01 00:00:24.211,0.15,0.24
2024-01-01 00:00:24.219,0.11,0.18
2024-01-01 00:00:24.227,0.02,0.25
2024-01-01 00:00:24.234,-0.01,0.13
2024-01-01 00:00:24.242,-0.09,0.08
2024-01-01 00:00:24.250,-0.11,0.06
2024-01-01 00:00:24.258,-0.11,-0.03
2024-01-01 00:00:24.266,-0.09,-0.18
2024-01-01 00:00:24.273,-0.1,-0.19
2024-01-01 00:00:24.281,-0.11,-0.17
2024-01-01 00:00:24.289,-0.09,-0.16
2024-01-01 00:00:24.297,-0.1,-0.18
2024-01-01 00:00:24.305,-0.07,-0.41
2024-01-01 00:00:24.313,0.31,0.44
2024-01-01 00:00:24.320,0.46,2.7
2024-01-01 00:00:24.328,0.19,5.11
2024-01-01 00:00:24.336,-1.98,5.11
2024-01-01 00:00:24.344,-2.14,3.22
2024-01-01 00:00:24.352,-1.28,-0.67
2024-01-01 00:00:24.359,-0.89,-0.43
2024-01-01 00:00:24.367,-0.32,-0.24
2024-01-01 00:00:24.375,-0.01,-0.26
2024-01-01 00:00:24.383,0.0,-0.33
2024-01-01 00:00:24.391,0.03,-0.32
2024-01-01 00:00:24.398,0.05,-0.3
2024-01-01 00:00:24.406,0.09,-0.33
2024-01-01 00:00:24.414,0.09,-0.34
2024-01-01 00:00:24.422,0.1,-0.31
2024-01-01 00:00:24.430,0.13,-0.3
2024-01-01 00:00:24.438,0.13,-0.31
2024-01-01 00:00:24.445,0.15,-0.3
2024-01-01 00:00:24.453,0.18,-0.28
2024-01-01 00:00:24.461,0.18,-0.28
2024-01-01 00:00:24.469,0.19,-0.3
2024-01-01 00:00:24.477,0.22,-0.26
2024-01-01 00:00:24.484,0.23,-0.25
2024-01-01 00:00:24.492,0.26,-0.27
2024-01-01 00:00:24.500,0.28,-0.26
2024-01-01 00:00:24.508,0.3,-0.25
2024-01-01 00:00:24.516,0.31,-0.27
2024-01-01 00:00:24.523,0.33,-0.29
2024-01-01 00:00:24.531,0.34,-0.27
2024-01-01 00:00:24.539,0.35,-0.28
2024-01-01 00:00:24.547,0.36,-0.32
2024-01-01 00:00:24.555,0.33,-0.34
2024-01-01 00:00:24.563,0.32,-0.35
2024-01-01 00:00:24.570,0.29,-0.4
2024-01-01 00:00:24.578,0.25,-0.43
2024-01-01 00:00:24.586,0.2,-0.37
2024-01-01 00:00:24.594,0.15,-0.34
2024-01-01 00:00:24.602,0.1,-0.28
2024-01-01 00:00:24.609,0.08,-0.21
2024-01-01 00:00:24.617,0.06,-0.13
2024-01-01 00:00:24.625,0.06,-0.07
2024-01-01 00:00:24.633,0.04,-0.05
2024-01-01 00:00:24.641,0.05,0.0
2024-01-01 00:00:24.648,0.07,0.0
2024-01-01 00:00:24.656,0.06,-0.01
2024-01-01 00:00:24.664,0.07,-0.04
2024-01-01 00:00:24.672,0.06,0.0
2024-01-01 00:00:24.680,0.05,-0.02
2024-01-01 00:00:24.688,0.05,-0.03
2024-01-01 00:00:24.695,0.06,-0.02
2024-01-01 00:00:24.703,0.05,-0.02
2024-01-01 00:00:24.711,0.07,-0.03
2024-01-01 00:00:24.719,0.06,-0.07
2024-01-01 00:00:24.727,0.06,-0.04
2024-01-01 00:00:24.734,0.07,-0.06
2024-01-01 00:00:24.742,0.08,-0.08
2024-01-01 00:00:24.750,0.07,-0.09
2024-01-01 00:00:24.758,0.08,-0.08
2024-01-01 00:00:24.766,0.1,-0.11
2024-01-01 00:00:24.773,0.08,-0.13
2024-01-01 00:00:24.781,0.1,-0.1
2024-01-01 00:00:24.789,0.09,-0.11
2024-01-01 00:00:24.797,0.1,-0.15
2024-01-01 00:00:24.805,0.09,-0.13
2024-01-01 00:00:24.813,0.1,-0.12
2024-01-01 00:00:24.820,0.08,-0.15
2024-01-01 00:00:24.828,0.08,-0.15
2024-01-01 00:00:24.836,0.06,-0.13
2024-01-01 00:00:24.844,0.04,-0.12
2024-01-01 00:00:24.852,0.06,-0.14
2024-01-01 00:00:24.859,0.04,-0.16
2024-01-01 00:00:24.867,0.04,-0.12
2024-01-01 00:00:24.875,0.04,-0.15
2024-01-01 00:00:24.883,0.02,-0.16
2024-01-01 00:00:24.891,0.01,-0.13
2024-01-01 00:00:24.898,0.02,-0.13
2024-01-01 00:00:24.906,0.01,-0.14
2024-01-01 00:00:24.914,0.01,-0.15
2024-01-01 00:00:24.922,0.01,-0.13
2024-01-01 00:00:24.930,0.04,-0.12
2024-01-01 00:00:24.938,0.07,-0.09
2024-01-01 00:00:24.945,0.05,-0.06
2024-01-01 00:00:24.953,0.11,-0.02
2024-01-01 00:00:24.961,0.14,0.13
2024-01-01 00:00:24.969,0.2,0.27
2024-01-01 00:00:24.977,0.15,0.26
2024-01-01 00:00:24.984,0.08,0.27
2024-01-01 00:00:24.992,0.02,0.12
2024-01-01 00:00:25.000,-0.08,0.1
2024-01-01 00:00:25.008,-0.08,0.1
2024-01-01 00:00:25.016,-0.07,-0.03
2024-01-01 00:00:25.023,-0.07,-0.16
2024-01-01 00:00:25.031,-0.06,-0.15
2024-01-01 00:00:25.039,-0.07,-0.16
2024-01-01 00:00:25.047,-0.08,-0.17
2024-01-01 00:00:25.055,-0.07,-0.13
2024-01-01 00:00:25.063,-0.03,-0.32
2024-01-01 00:00:25.070,0.28,0.42
2024-01-01 00:00:25.078,0.49,2.66
2024-01-01 00:00:25.086,0.39,5.11
2024-01-01 00:00:25.094,-1.88,5.11
2024-01-01 00:00:25.102,-2.03,3.27
2024-01-01 00:00:25.109,-1.2,-0.64
2024-01-01 00:00:25.117,-0.89,-0.37
2024-01-01 00:00:25.125,-0.32,-0.24
2024-01-01 00:00:25.133,0.01,-0.27
2024-01-01 00:00:25.141,0.01,-0.3
2024-01-01 00:00:25.148,0.03,-0.31
2024-01-01 00:00:25.156,0.05,-0.34
2024-01-01 00:00:25.164,0.08,-0.32
2024-01-01 00:00:25.172,0.07,-0.31
2024-01-01 00:00:25.180,0.11,-0.31
2024-01-01 00:00:25.188,0.1,-0.33
2024-01-01 00:00:25.195,0.1,-0.3
2024-01-01 00:00:25.203,0.13,-0.29
2024-01-01 00:00:25.211,0.12,-0.29
2024-01-01 00:00:25.219,0.14,-0.3
2024-01-01 00:00:25.227,0.16,-0.26
2024-01-01 00:00:25.234,0.18,-0.28
2024-01-01 00:00:25.242,0.18,-0.29
2024-01-01 00:00:25.250,0.2,-0.25
2024-01-01 00:00:25.258,0.23,-0.25
2024-01-01 00:00:25.266,0.23,-0.27
2024-01-01 00:00:25.273,0.26,-0.27
2024-01-01 00:00:25.281,0.28,-0.26
2024-01-01 00:00:25.289,0.27,-0.28
2024-01-01 00:00:25.297,0.28,-0.3
2024-01-01 00:00:25.305,0.26,-0.3
2024-01-01 00:00:25.313,0.26,-0.32
2024-01-01 00:00:25.320,0.23,-0.37
2024-01-01 00:00:25.328,0.23,-0.39
2024-01-01 00:00:25.336,0.17,-0.38
2024-01-01 00:00:25.344,0.16,-0.36
2024-01-01 00:00:25.352,0.11,-0.34
2024-01-01 00:00:25.359,0.07,-0.24
2024-01-01 00:00:25.367,0.06,-0.17
2024-01-01 00:00:25.375,0.05,-0.12
2024-01-01 00:00:25.383,0.05,-0.09
2024-01-01 00:00:25.391,0.04,-0.03
2024-01-01 00:00:25.398,0.06,-0.03
2024-01-01 00:00:25.406,0.05,-0.06
2024-01-01 00:00:25.414,0.07,-0.03
2024-01-01 00:00:25.422,0.06,-0.04
2024-01-01 00:00:25.430,0.08,-0.05
2024-01-01 00:00:25.438,0.05,-0.08
2024-01-01 00:00:25.445,0.07,-0.03
2024-01-01 00:00:25.453,0.07,-0.06
2024-01-01 00:00:25.461,0.07,-0.08
2024-01-01 00:00:25.469,0.07,-0.08
2024-01-01 00:00:25.477,0.08,-0.08
2024-01-01 00:00:25.484,0.08,-0.11
2024-01-01 00:00:25.492,0.1,-0.12
2024-01-01 00:00:25.500,0.08,-0.1
2024-01-01 00:00:25.508,0.09,-0.11
2024-01-01 00:00:25.516,0.11,-0.14
2024-01-01 00:00:25.523,0.09,-0.14
2024-01-01 00:00:25.531,0.11,-0.13
2024-01-01 00:00:25.539,0.11,-0.15
2024-01-01 00:00:25.547,0.1,-0.18
2024-01-01 00:00:25.555,0.07,-0.16
2024-01-01 00:00:25.563,0.09,-0.16
2024-01-01 00:00:25.570,0.08,-0.19
2024-01-01 00:00:25.578,0.08,-0.17
2024-01-01 00:00:25.586,0.06,-0.18
2024-01-01 00:00:25.594,0.06,-0.2
2024-01-01 00:00:25.602,0.03,-0.23
2024-01-01 00:00:25.609,0.03,-0.2
2024-01-01 00:00:25.617,0.02,-0.22
2024-01-01 00:00:25.625,0.04,-0.23
2024-01-01 00:00:25.633,0.02,-0.22
2024-01-01 00:00:25.641,0.03,-0.2
2024-01-01 00:00:25.648,0.02,-0.22
2024-01-01 00:00:25.656,0.02,-0.25
2024-01-01 00:00:25.664,0.0,-0.21
2024-01-01 00:00:25.672,0.02,-0.22
2024-01-01 00:00:25.680,0.02,-0.22
2024-01-01 00:00:25.688,0.01,-0.21
2024-01-01 00:00:25.695,0.03,-0.21
2024-01-01 00:00:25.703,0.02,-0.21
2024-01-01 00:00:25.711,0.02,-0.23
2024-01-01 00:00:25.719,0.01,-0.18
2024-01-01 00:00:25.727,0.03,-0.14
2024-01-01 00:00:25.734,0.08,-0.09
2024-01-01 00:00:25.742,0.05,-0.09
2024-01-01 00:00:25.750,0.11,-0.03
2024-01-01 00:00:25.758,0.11,0.04
2024-01-01 00:00:25.766,0.21,0.22
2024-01-01 00:00:25.773,0.13,0.2
2024-01-01 00:00:25.781,0.07,0.22
2024-01-01 00:00:25.789,0.03,0.14
2024-01-01 00:00:25.797,-0.09,0.05
2024-01-01 00:00:25.805,-0.1,0.06
2024-01-01 00:00:25.813,-0.09,0.02
2024-01-01 00:00:25.820,-0.06,-0.15
2024-01-01 00:00:25.828,-0.06,-0.17
2024-01-01 00:00:25.836,-0.07,-0.16
2024-01-01 00:00:25.844,-0.06,-0.17
2024-01-01 00:00:25.852,-0.07,-0.15
2024-01-01 00:00:25.859,-0.06,-0.29
2024-01-01 00:00:25.867,0.2,0.3
2024-01-01 00:00:25.875,0.46,2.33
2024-01-01 00:00:25.883,0.68,5.11
2024-01-01 00:00:25.891,-1.71,5.11
2024-01-01 00:00:25.898,-1.95,3.59
2024-01-01 00:00:25.906,-1.22,-0.54
2024-01-01 00:00:25.914,-0.97,-0.36
2024-01-01 00:00:25.922,-0.39,-0.27
2024-01-01 00:00:25.930,-0.03,-0.27
2024-01-01 00:00:25.938,-0.06,-0.32
2024-01-01 00:00:25.945,-0.01,-0.33
2024-01-01 00:00:25.953,0.02,-0.36
2024-01-01 00:00:25.961,0.04,-0.36
2024-01-01 00:00:25.969,0.04,-0.34
2024-01-01 00:00:25.977,0.05,-0.34
2024-01-01 00:00:25.984,0.06,-0.33
2024-01-01 00:00:25.992,0.06,-0.29
2024-01-01 00:00:26.000,0.09,-0.28
2024-01-01 00:00:26.008,0.1,-0.31
2024-01-01 00:00:26.016,0.11,-0.31
2024-01-01 00:00:26.023,0.12,-0.26
2024-01-01 00:00:26.031,0.14,-0.29
2024-01-01 00:00:26.039,0.13,-0.28
2024-01-01 00:00:26.047,0.13,-0.27
2024-01-01 00:00:26.055,0.13,-0.29
2024-01-01 00:00:26.063,0.16,-0.27
2024-01-01 00:00:26.070,0.15,-0.31
2024-01-01 00:00:26.078,0.17,-0.26
2024-01-01 00:00:26.086,0.17,-0.31
2024-01-01 00:00:26.094,0.16,-0.32
2024-01-01 00:00:26.102,0.16,-0.33
2024-01-01 00:00:26.109,0.14,-0.37
2024-01-01 00:00:26.117,0.13,-0.41
2024-01-01 00:00:26.125,0.1,-0.44
2024-01-01 00:00:26.133,0.07,-0.46
2024-01-01 00:00:26.141,0.06,-0.42
2024-01-01 00:00:26.148,0.02,-0.41
2024-01-01 00:00:26.156,0.0,-0.33
2024-01-01 00:00:26.164,0.01,-0.25
2024-01-01 00:00:26.172,-0.02,-0.19
2024-01-01 00:00:26.180,-0.02,-0.16
2024-01-01 00:00:26.188,-0.02,-0.1
2024-01-01 00:00:26.195,0.0,-0.1
2024-01-01 00:00:26.203,0.01,-0.1
2024-01-01 00:00:26.211,0.03,-0.08
2024-01-01 00:00:26.219,0.03,-0.06
2024-01-01 00:00:26.227,0.01,-0.09
2024-01-01 00:00:26.234,0.01,-0.11
2024-01-01 00:00:26.242,0.01,-0.06
2024-01-01 00:00:26.250,0.01,-0.09
2024-01-01 00:00:26.258,0.02,-0.12
2024-01-01 00:00:26.266,0.01,-0.11
2024-01-01 00:00:26.273,0.01,-0.12
2024-01-01 00:00:26.281,0.03,-0.14
2024-01-01 00:00:26.289,0.03,-0.16
2024-01-01 00:00:26.297,0.03,-0.14
2024-01-01 00:00:26.305,0.06,-0.15
2024-01-01 00:00:26.313,0.05,-0.19
2024-01-01 00:00:26.320,0.04,-0.19
2024-01-01 00:00:26.328,0.03,-0.17
2024-01-01 00:00:26.336,0.03,-0.18
2024-01-01 00:00:26.344,0.02,-0.2
2024-01-01 00:00:26.352,0.03,-0.18
2024-01-01 00:00:26.359,0.03,-0.16
2024-01-01 00:00:26.367,0.01,-0.2
2024-01-01 00:00:26.375,0.01,-0.23
2024-01-01 00:00:26.383,0.0,-0.21
2024-01-01 00:00:26.391,-0.02,-0.21
2024-01-01 00:00:26.398,0.0,-0.24
2024-01-01 00:00:26.406,-0.02,-0.23
2024-01-01 00:00:26.414,-0.01,-0.22
2024-01-01 00:00:26.422,-0.01,-0.22
2024-01-01 00:00:26.430,-0.03,-0.25
2024-01-01 00:00:26.438,-0.04,-0.22
2024-01-01 00:00:26.445,-0.05,-0.23
2024-01-01 00:00:26.453,-0.06,-0.25
2024-01-01 00:00:26.461,-0.04,-0.27
2024-01-01 00:00:26.469,-0.05,-0.26
2024-01-01 00:00:26.477,-0.06,-0.25
2024-01-01 00:00:26.484,-0.06,-0.28
2024-01-01 00:00:26.492,-0.07,-0.23
2024-01-01 00:00:26.500,-0.02,-0.18
2024-01-01 00:00:26.508,0.02,-0.21
2024-01-01 00:00:26.516,-0.03,-0.14
2024-01-01 00:00:26.523,0.05,-0.08
2024-01-01 00:00:26.531,0.06,0.05
2024-01-01 00:00:26.539,0.13,0.1
2024-01-01 00:00:26.547,0.05,0.1
2024-01-01 00:00:26.555,0.01,0.13
2024-01-01 00:00:26.563,-0.03,0.0
2024-01-01 00:00:26.570,-0.14,-0.06
2024-01-01 00:00:26.578,-0.11,-0.06
2024-01-01 00:00:26.586,-0.12,-0.14
2024-01-01 00:00:26.594,-0.11,-0.29
2024-01-01 00:00:26.602,-0.12,-0.3
2024-01-01 00:00:26.609,-0.12,-0.29
2024-01-01 00:00:26.617,-0.12,-0.28
2024-01-01 00:00:26.625,-0.12,-0.31
2024-01-01 00:00:26.633,-0.12,-0.36
2024-01-01 00:00:26.641,0.2,0.74
2024-01-01 00:00:26.648,0.54,3.21
2024-01-01 00:00:26.656,0.33,5.11
2024-01-01 00:00:26.664,-1.56,5.11
2024-01-01 00:00:26.672,-1.59,2.1
2024-01-01 00:00:26.680,-1.22,-0.78
2024-01-01 00:00:26.688,-0.74,-0.61
2024-01-01 00:00:26.695,-0.44,-0.35
2024-01-01 00:00:26.703,-0.06,-0.4
2024-01-01 00:00:26.711,-0.07,-0.43
2024-01-01 00:00:26.719,-0.03,-0.42
2024-01-01 00:00:26.727,-0.01,-0.41
2024-01-01 00:00:26.734,0.01,-0.44
2024-01-01 00:00:26.742,0.02,-0.4
2024-01-01 00:00:26.750,0.04,-0.38
2024-01-01 00:00:26.758,0.05,-0.38
2024-01-01 00:00:26.766,0.06,-0.38
2024-01-01 00:00:26.773,0.06,-0.33
