'Elapsed time','ECG1','ECG2'
'hh:mm:ss.mmm','mV','mV'
'0:00.000',0.160,-0.290
'0:00.008',0.180,-0.300
'0:00.016',0.170,-0.320
'0:00.023',0.180,-0.290
'0:00.031',0.180,-0.310
'0:00.039',0.170,-0.330
'0:00.047',0.170,-0.330
'0:00.055',0.130,-0.360
'0:00.063',0.130,-0.390
'0:00.070',0.100,-0.390
'0:00.078',0.060,-0.350
'0:00.086',0.040,-0.310
'0:00.094',0.010,-0.270
'0:00.102',-0.010,-0.200
'0:00.109',-0.020,-0.150
'0:00.117',-0.020,-0.150
'0:00.125',-0.020,-0.160
'0:00.133',-0.030,-0.120
'0:00.141',0.000,-0.140
'0:00.148',0.000,-0.160
'0:00.156',0.000,-0.180
'0:00.164',0.020,-0.150
'0:00.172',0.030,-0.180
'0:00.180',0.040,-0.200
'0:00.188',0.030,-0.170
'0:00.195',0.070,-0.190
'0:00.203',0.050,-0.220
'0:00.211',0.060,-0.210
'0:00.219',0.050,-0.210
'0:00.227',0.050,-0.220
'0:00.234',0.050,-0.240
'0:00.242',0.050,-0.210
'0:00.250',0.060,-0.210
'0:00.258',0.050,-0.230
'0:00.266',0.050,-0.230
'0:00.273',0.030,-0.210
'0:00.281',0.030,-0.230
'0:00.289',0.030,-0.230
'0:00.297',0.020,-0.210
'0:00.305',0.020,-0.210
'0:00.313',0.020,-0.240
'0:00.320',0.010,-0.260
'0:00.328',0.000,-0.240
'0:00.336',0.000,-0.240
'0:00.344',0.000,-0.260
'0:00.352',-0.010,-0.220
'0:00.359',0.000,-0.240
'0:00.367',-0.010,-0.250
'0:00.375',-0.010,-0.270
'0:00.383',-0.010,-0.260
'0:00.391',-0.010,-0.250
'0:00.398',-0.010,-0.270
'0:00.406',-0.020,-0.260
'0:00.414',-0.020,-0.240
'0:00.422',-0.010,-0.270
'0:00.430',-0.010,-0.270
'0:00.438',0.000,-0.210
'0:00.445',0.060,-0.180
'0:00.453',0.050,-0.200
'0:00.461',0.090,-0.140
'0:00.469',0.110,-0.070
'0:00.477',0.160,0.120
'0:00.484',0.130,0.070
'0:00.492',0.050,0.110
'0:00.500',0.030,0.090
'0:00.508',-0.090,-0.040
'0:00.516',-0.120,-0.060
'0:00.523',-0.090,-0.060
'0:00.531',-0.080,-0.200
'0:00.539',-0.090,-0.300
'0:00.547',-0.080,-0.280
'0:00.555',-0.080,-0.260
'0:00.563',-0.070,-0.270
'0:00.570',-0.080,-0.340
'0:00.578',0.090,-0.320
'0:00.586',0.450,0.840
'0:00.594',0.790,3.930
'0:00.602',-1.170,5.110
'0:00.609',-1.910,5.000
'0:00.617',-1.640,1.320
'0:00.625',-1.280,-0.670
'0:00.633',-0.520,-0.480
'0:00.641',-0.150,-0.280
'0:00.648',-0.030,-0.380
'0:00.656',-0.030,-0.390
'0:00.664',0.010,-0.390
'0:00.672',0.030,-0.400
'0:00.680',0.050,-0.410
'0:00.688',0.060,-0.370
'0:00.695',0.080,-0.370
'0:00.703',0.090,-0.400
'0:00.711',0.100,-0.360
'0:00.719',0.130,-0.350
'0:00.727',0.140,-0.360
'0:00.734',0.160,-0.380
'0:00.742',0.150,-0.330
'0:00.750',0.180,-0.330
'0:00.758',0.200,-0.340
'0:00.766',0.220,-0.330
'0:00.773',0.220,-0.310
'0:00.781',0.260,-0.330
'0:00.789',0.280,-0.350
'0:00.797',0.280,-0.330
'0:00.805',0.300,-0.350
'0:00.813',0.290,-0.360
'0:00.820',0.290,-0.400
'0:00.828',0.270,-0.410
'0:00.836',0.240,-0.450
'0:00.844',0.210,-0.490
'0:00.852',0.170,-0.460
'0:00.859',0.130,-0.450
'0:00.867',0.100,-0.410
'0:00.875',0.050,-0.350
'0:00.883',0.030,-0.250
'0:00.891',0.040,-0.200
'0:00.898',0.050,-0.170
'0:00.906',0.040,-0.120
'0:00.914',0.050,-0.100
'0:00.922',0.060,-0.120
'0:00.930',0.060,-0.120
'0:00.938',0.060,-0.100
'0:00.945',0.060,-0.120
'0:00.953',0.050,-0.120
'0:00.961',0.040,-0.100
'0:00.969',0.070,-0.100
'0:00.977',0.060,-0.130
'0:00.984',0.070,-0.140
'0:00.992',0.060,-0.120
'0:01.000',0.080,-0.130
'0:01.008',0.080,-0.160
'0:01.016',0.080,-0.140
'0:01.023',0.090,-0.140
'0:01.031',0.100,-0.180
'0:01.039',0.100,-0.190
'0:01.047',0.090,-0.180
'0:01.055',0.090,-0.190
'0:01.063',0.090,-0.210
'0:01.070',0.080,-0.190
'0:01.078',0.070,-0.200
'0:01.086',0.070,-0.210
'0:01.094',0.060,-0.240
'0:01.102',0.050,-0.210
'0:01.109',0.050,-0.220
'0:01.117',0.050,-0.230
'0:01.125',0.020,-0.210
'0:01.133',0.040,-0.200
'0:01.141',0.030,-0.220
'0:01.148',0.010,-0.230
'0:01.156',0.010,-0.200
'0:01.164',0.000,-0.210
'0:01.172',0.010,-0.230
'0:01.180',0.000,-0.230
'0:01.188',0.000,-0.220
'0:01.195',0.000,-0.240
'0:01.203',0.000,-0.250
'0:01.211',-0.020,-0.210
'0:01.219',-0.010,-0.200
'0:01.227',-0.010,-0.220
'0:01.234',-0.020,-0.210
'0:01.242',-0.020,-0.200
'0:01.250',-0.020,-0.210
'0:01.258',-0.020,-0.190
'0:01.266',0.020,-0.090
'0:01.273',0.020,-0.100
'0:01.281',0.060,-0.080
'0:01.289',0.060,-0.030
'0:01.297',0.140,0.220
'0:01.305',0.100,0.160
'0:01.313',0.020,0.170
'0:01.320',-0.020,0.140
'0:01.328',-0.130,0.040
'0:01.336',-0.130,0.020
'0:01.344',-0.130,-0.020
'0:01.352',-0.100,-0.150
'0:01.359',-0.100,-0.220
'0:01.367',-0.100,-0.250
'0:01.375',-0.110,-0.210
'0:01.383',-0.110,-0.190
'0:01.391',-0.090,-0.360
'0:01.398',0.160,-0.070
'0:01.406',0.430,1.440
'0:01.414',0.750,4.620
'0:01.422',-1.520,5.110
'0:01.430',-1.930,4.360
'0:01.438',-1.360,0.190
'0:01.445',-1.110,-0.420
'0:01.453',-0.440,-0.380
'0:01.461',-0.080,-0.240
'0:01.469',-0.060,-0.330
'0:01.477',-0.040,-0.360
'0:01.484',0.000,-0.370
'0:01.492',0.020,-0.350
'0:01.500',0.050,-0.370
'0:01.508',0.060,-0.380
'0:01.516',0.060,-0.360
'0:01.523',0.090,-0.360
'0:01.531',0.090,-0.360
'0:01.539',0.100,-0.330
'0:01.547',0.120,-0.320
'0:01.555',0.140,-0.320
'0:01.563',0.140,-0.340
'0:01.570',0.160,-0.290
'0:01.578',0.190,-0.300
'0:01.586',0.210,-0.320
'0:01.594',0.210,-0.320
'0:01.602',0.240,-0.300
'0:01.609',0.250,-0.320
'0:01.617',0.250,-0.350
'0:01.625',0.250,-0.330
'0:01.633',0.260,-0.360
'0:01.641',0.240,-0.400
'0:01.648',0.210,-0.430
'0:01.656',0.190,-0.450
'0:01.664',0.170,-0.480
'0:01.672',0.110,-0.490
'0:01.680',0.070,-0.420
'0:01.688',0.050,-0.350
'0:01.695',0.010,-0.310
'0:01.703',0.010,-0.230
'0:01.711',-0.010,-0.150
'0:01.719',0.010,-0.130
'0:01.727',0.000,-0.120
'0:01.734',0.010,-0.090
'0:01.742',0.020,-0.080
'0:01.750',0.010,-0.110
'0:01.758',0.010,-0.120
'0:01.766',0.020,-0.090
'0:01.773',0.020,-0.110
'0:01.781',0.010,-0.120
'0:01.789',0.010,-0.080
'0:01.797',0.020,-0.100
'0:01.805',0.020,-0.120
'0:01.813',0.020,-0.120
'0:01.820',0.020,-0.110
'0:01.828',0.020,-0.130
'0:01.836',0.020,-0.140
'0:01.844',0.020,-0.130
'0:01.852',0.030,-0.140
'0:01.859',0.030,-0.160
'0:01.867',0.020,-0.170
'0:01.875',0.020,-0.150
'0:01.883',0.020,-0.170
'0:01.891',0.030,-0.190
'0:01.898',0.010,-0.160
'0:01.906',0.010,-0.170
'0:01.914',0.000,-0.180
'0:01.922',-0.020,-0.180
'0:01.930',0.000,-0.160
'0:01.938',-0.010,-0.180
'0:01.945',-0.020,-0.200
'0:01.953',-0.020,-0.160
'0:01.961',-0.020,-0.170
'0:01.969',-0.020,-0.190
'0:01.977',-0.030,-0.180
'0:01.984',-0.040,-0.160
'0:01.992',-0.050,-0.180
'0:02.000',-0.050,-0.200
'0:02.008',-0.060,-0.160
'0:02.016',-0.060,-0.170
'0:02.023',-0.060,-0.180
'0:02.031',-0.060,-0.180
'0:02.039',-0.060,-0.150
'0:02.047',-0.060,-0.160
'0:02.055',-0.060,-0.170
'0:02.063',-0.060,-0.110
'0:02.070',-0.020,-0.080
'0:02.078',-0.020,-0.090
'0:02.086',-0.010,-0.040
'0:02.094',0.030,0.010
'0:02.102',0.080,0.180
'0:02.109',0.090,0.200
'0:02.117',0.000,0.210
'0:02.125',-0.050,0.220
'0:02.133',-0.130,0.060
'0:02.141',-0.180,0.070
'0:02.148',-0.160,0.060
'0:02.156',-0.150,-0.060
'0:02.164',-0.130,-0.180
'0:02.172',-0.130,-0.190
'0:02.180',-0.140,-0.180
'0:02.188',-0.130,-0.180
'0:02.195',-0.140,-0.240
'0:02.203',-0.040,-0.260
'0:02.211',0.340,0.940
'0:02.219',0.710,4.030
'0:02.227',-1.050,5.110
'0:02.234',-1.870,4.930
'0:02.242',-1.580,1.110
'0:02.250',-1.250,-0.550
'0:02.258',-0.540,-0.420
'0:02.266',-0.170,-0.230
'0:02.273',-0.070,-0.340
'0:02.281',-0.070,-0.350
'0:02.289',-0.030,-0.350
'0:02.297',-0.010,-0.360
'0:02.305',0.010,-0.370
'0:02.313',0.020,-0.330
'0:02.320',0.030,-0.320
'0:02.328',0.040,-0.340
'0:02.336',0.040,-0.320
'0:02.344',0.040,-0.300
'0:02.352',0.060,-0.310
'0:02.359',0.080,-0.320
'0:02.367',0.080,-0.280
'0:02.375',0.090,-0.280
'0:02.383',0.100,-0.300
'0:02.391',0.110,-0.300
'0:02.398',0.120,-0.270
'0:02.406',0.140,-0.270
'0:02.414',0.150,-0.320
'0:02.422',0.170,-0.280
'0:02.430',0.150,-0.320
'0:02.438',0.160,-0.350
'0:02.445',0.140,-0.360
'0:02.453',0.120,-0.370
'0:02.461',0.120,-0.430
'0:02.469',0.080,-0.470
'0:02.477',0.040,-0.430
'0:02.484',0.030,-0.430
'0:02.492',0.010,-0.380
'0:02.500',-0.020,-0.310
'0:02.508',-0.030,-0.200
'0:02.516',-0.010,-0.150
'0:02.523',-0.030,-0.110
'0:02.531',-0.010,-0.050
'0:02.539',0.000,-0.050
'0:02.547',0.010,-0.070
'0:02.555',0.010,-0.070
'0:02.563',0.020,-0.040
'0:02.570',0.020,-0.060
'0:02.578',0.010,-0.080
'0:02.586',0.000,-0.060
'0:02.594',0.000,-0.070
'0:02.602',0.010,-0.090
'0:02.609',0.010,-0.110
'0:02.617',0.020,-0.080
'0:02.625',0.010,-0.110
'0:02.633',0.010,-0.110
'0:02.641',0.030,-0.120
'0:02.648',0.030,-0.110
'0:02.656',0.010,-0.120
'0:02.664',0.020,-0.150
'0:02.672',0.010,-0.140
'0:02.680',0.030,-0.140
'0:02.688',0.010,-0.180
'0:02.695',-0.010,-0.190
'0:02.703',0.010,-0.160
'0:02.711',0.010,-0.150
'0:02.719',0.000,-0.180
'0:02.727',-0.010,-0.150
'0:02.734',-0.010,-0.160
'0:02.742',-0.010,-0.170
'0:02.750',-0.020,-0.170
'0:02.758',-0.010,-0.140
'0:02.766',-0.010,-0.170
'0:02.773',-0.020,-0.180
'0:02.781',-0.050,-0.160
'0:02.789',-0.020,-0.170
'0:02.797',-0.030,-0.190
'0:02.805',-0.020,-0.210
'0:02.813',-0.050,-0.170
'0:02.820',-0.030,-0.160
'0:02.828',-0.040,-0.190
'0:02.836',-0.040,-0.170
'0:02.844',-0.010,-0.140
'0:02.852',0.030,-0.100
'0:02.859',-0.020,-0.110
'0:02.867',0.070,-0.050
'0:02.875',0.060,0.010
'0:02.883',0.130,0.170
'0:02.891',0.100,0.170
'0:02.898',0.030,0.160
'0:02.906',-0.020,0.140
'0:02.914',-0.120,0.010
'0:02.922',-0.140,0.010
'0:02.930',-0.150,-0.030
'0:02.938',-0.110,-0.140
'0:02.945',-0.130,-0.230
'0:02.953',-0.130,-0.230
'0:02.961',-0.140,-0.230
'0:02.969',-0.120,-0.230
'0:02.977',-0.140,-0.290
'0:02.984',0.080,-0.050
'0:02.992',0.340,1.320
'0:03.000',0.670,4.420
'0:03.008',-0.810,5.110
'0:03.016',-1.640,4.900
'0:03.023',-1.350,0.660
'0:03.031',-1.110,-0.490
'0:03.039',-0.610,-0.470
'0:03.047',-0.210,-0.250
'0:03.055',-0.110,-0.350
'0:03.063',-0.090,-0.350
'0:03.070',-0.060,-0.370
'0:03.078',-0.030,-0.400
'0:03.086',-0.030,-0.340
'0:03.094',0.000,-0.360
'0:03.102',0.000,-0.350
'0:03.109',0.010,-0.360
'0:03.117',0.020,-0.330
'0:03.125',0.040,-0.330
'0:03.133',0.050,-0.330
'0:03.141',0.040,-0.310
'0:03.148',0.060,-0.290
'0:03.156',0.080,-0.310
'0:03.164',0.080,-0.310
'0:03.172',0.100,-0.270
'0:03.180',0.120,-0.280
'0:03.188',0.140,-0.290
'0:03.195',0.150,-0.260
'0:03.203',0.170,-0.250
'0:03.211',0.170,-0.270
'0:03.219',0.170,-0.290
'0:03.227',0.160,-0.260
'0:03.234',0.150,-0.300
'0:03.242',0.140,-0.340
'0:03.250',0.100,-0.340
'0:03.258',0.100,-0.330
'0:03.266',0.060,-0.340
'0:03.273',0.020,-0.310
'0:03.281',0.000,-0.230
'0:03.289',0.010,-0.180
'0:03.297',-0.020,-0.150
'0:03.305',-0.020,-0.110
'0:03.313',-0.010,-0.080
'0:03.320',-0.020,-0.090
'0:03.328',0.010,-0.100
'0:03.336',0.000,-0.080
'0:03.344',0.000,-0.100
'0:03.352',0.010,-0.130
'0:03.359',0.010,-0.120
'0:03.367',0.010,-0.110
'0:03.375',0.020,-0.130
'0:03.383',0.020,-0.160
'0:03.391',0.030,-0.130
'0:03.398',0.020,-0.140
'0:03.406',0.030,-0.170
'0:03.414',0.030,-0.180
'0:03.422',0.020,-0.150
'0:03.430',0.030,-0.160
'0:03.438',0.020,-0.170
'0:03.445',0.010,-0.140
'0:03.453',0.010,-0.150
'0:03.461',0.010,-0.160
'0:03.469',-0.010,-0.170
'0:03.477',0.000,-0.140
'0:03.484',0.000,-0.160
'0:03.492',0.010,-0.180
'0:03.500',-0.020,-0.150
'0:03.508',0.000,-0.140
'0:03.516',-0.010,-0.160
'0:03.523',-0.020,-0.170
'0:03.531',-0.010,-0.140
'0:03.539',-0.010,-0.140
'0:03.547',-0.020,-0.170
'0:03.555',-0.020,-0.140
'0:03.563',-0.020,-0.150
'0:03.570',-0.020,-0.170
'0:03.578',-0.020,-0.190
'0:03.586',-0.030,-0.160
'0:03.594',-0.020,-0.170
'0:03.602',-0.020,-0.180
'0:03.609',-0.040,-0.150
'0:03.617',-0.020,-0.150
'0:03.625',0.020,-0.100
'0:03.633',0.040,-0.110
'0:03.641',0.040,-0.040
'0:03.648',0.080,-0.010
'0:03.656',0.120,0.120
'0:03.664',0.150,0.220
'0:03.672',0.060,0.200
'0:03.680',0.010,0.210
'0:03.688',-0.050,0.070
'0:03.695',-0.140,0.090
'0:03.703',-0.110,0.070
'0:03.711',-0.120,-0.060
'0:03.719',-0.110,-0.150
'0:03.727',-0.100,-0.170
'0:03.734',-0.100,-0.190
'0:03.742',-0.080,-0.190
'0:03.750',-0.100,-0.180
'0:03.758',-0.030,-0.320
'0:03.766',0.350,0.680
'0:03.773',0.610,3.450
'0:03.781',-0.460,5.110
'0:03.789',-1.880,5.110
'0:03.797',-1.900,2.270
'0:03.805',-1.250,-0.620
'0:03.813',-0.630,-0.380
'0:03.820',-0.260,-0.190
'0:03.828',-0.030,-0.250
'0:03.836',-0.040,-0.270
'0:03.844',0.000,-0.290
'0:03.852',0.020,-0.310
'0:03.859',0.040,-0.290
'0:03.867',0.050,-0.270
'0:03.875',0.070,-0.300
'0:03.883',0.070,-0.300
'0:03.891',0.090,-0.250
'0:03.898',0.100,-0.270
'0:03.906',0.120,-0.280
'0:03.914',0.110,-0.240
'0:03.922',0.150,-0.240
'0:03.930',0.150,-0.250
'0:03.938',0.180,-0.240
'0:03.945',0.190,-0.220
'0:03.953',0.210,-0.230
'0:03.961',0.220,-0.240
'0:03.969',0.240,-0.230
'0:03.977',0.250,-0.230
'0:03.984',0.260,-0.270
'0:03.992',0.260,-0.280
'0:04.000',0.240,-0.290
'0:04.008',0.230,-0.330
'0:04.016',0.190,-0.370
'0:04.023',0.170,-0.380
'0:04.031',0.130,-0.390
'0:04.039',0.090,-0.390
'0:04.047',0.040,-0.340
'0:04.055',0.000,-0.240
'0:04.063',0.000,-0.160
'0:04.070',-0.010,-0.110
'0:04.078',-0.020,-0.030
'0:04.086',-0.020,-0.010
'0:04.094',0.000,-0.010
'0:04.102',0.000,-0.010
'0:04.109',0.010,0.010
'0:04.117',0.000,-0.010
'0:04.125',0.000,-0.020
'0:04.133',-0.010,0.020
'0:04.141',0.010,0.020
'0:04.148',0.000,-0.010
'0:04.156',0.000,-0.020
'0:04.164',0.020,0.000
'0:04.172',0.010,-0.030
'0:04.180',0.020,-0.060
'0:04.188',0.030,-0.040
'0:04.195',0.030,-0.040
'0:04.203',0.050,-0.070
'0:04.211',0.050,-0.090
'0:04.219',0.050,-0.080
'0:04.227',0.050,-0.100
'0:04.234',0.050,-0.130
'0:04.242',0.040,-0.100
'0:04.250',0.030,-0.120
'0:04.258',0.040,-0.130
'0:04.266',0.020,-0.150
'0:04.273',0.030,-0.120
'0:04.281',0.010,-0.140
'0:04.289',0.020,-0.150
'0:04.297',0.000,-0.140
'0:04.305',0.010,-0.140
'0:04.313',0.010,-0.150
'0:04.320',0.010,-0.150
'0:04.328',-0.010,-0.130
'0:04.336',-0.010,-0.140
'0:04.344',0.000,-0.150
'0:04.352',-0.020,-0.130
'0:04.359',-0.010,-0.130
'0:04.367',-0.010,-0.150
'0:04.375',-0.010,-0.170
'0:04.383',-0.020,-0.140
'0:04.391',-0.010,-0.140
'0:04.398',-0.020,-0.150
'0:04.406',-0.020,-0.120
'0:04.414',-0.020,-0.130
'0:04.422',-0.020,-0.120
'0:04.430',0.020,-0.100
'0:04.438',0.050,-0.050
'0:04.445',0.020,-0.010
'0:04.453',0.090,0.020
'0:04.461',0.100,0.150
'0:04.469',0.160,0.260
'0:04.477',0.070,0.210
'0:04.484',0.010,0.200
'0:04.492',-0.050,0.110
'0:04.500',-0.120,0.090
'0:04.508',-0.100,0.050
'0:04.516',-0.100,-0.040
'0:04.523',-0.080,-0.120
'0:04.531',-0.070,-0.160
'0:04.539',-0.090,-0.160
'0:04.547',-0.100,-0.130
'0:04.555',-0.090,-0.140
'0:04.563',-0.050,-0.330
'0:04.570',0.340,0.740
'0:04.578',0.580,3.520
'0:04.586',-0.420,5.110
'0:04.594',-1.840,5.110
'0:04.602',-1.800,1.860
'0:04.609',-1.220,-0.550
'0:04.617',-0.570,-0.390
'0:04.625',-0.220,-0.190
'0:04.633',-0.040,-0.260
'0:04.641',-0.030,-0.310
'0:04.648',-0.020,-0.330
'0:04.656',0.010,-0.310
'0:04.664',0.020,-0.310
'0:04.672',0.050,-0.340
'0:04.680',0.050,-0.340
'0:04.688',0.040,-0.310
'0:04.695',0.060,-0.320
'0:04.703',0.080,-0.340
'0:04.711',0.080,-0.300
'0:04.719',0.110,-0.300
'0:04.727',0.110,-0.300
'0:04.734',0.120,-0.320
'0:04.742',0.140,-0.280
'0:04.750',0.140,-0.280
'0:04.758',0.180,-0.290
'0:04.766',0.180,-0.280
'0:04.773',0.210,-0.280
'0:04.781',0.210,-0.300
'0:04.789',0.220,-0.330
'0:04.797',0.220,-0.320
'0:04.805',0.220,-0.350
'0:04.813',0.190,-0.400
'0:04.820',0.180,-0.420
'0:04.828',0.160,-0.430
'0:04.836',0.140,-0.470
'0:04.844',0.090,-0.460
'0:04.852',0.040,-0.380
'0:04.859',0.020,-0.310
'0:04.867',0.000,-0.240
'0:04.875',0.010,-0.150
'0:04.883',0.020,-0.090
'0:04.891',0.010,-0.080
'0:04.898',0.020,-0.060
'0:04.906',0.030,-0.020
'0:04.914',0.030,-0.030
'0:04.922',0.040,-0.040
'0:04.930',0.030,-0.040
'0:04.938',0.040,-0.020
'0:04.945',0.030,-0.040
'0:04.953',0.030,-0.070
'0:04.961',0.020,-0.040
'0:04.969',0.040,-0.050
'0:04.977',0.040,-0.080
'0:04.984',0.030,-0.090
'0:04.992',0.040,-0.070
'0:05.000',0.040,-0.090
'0:05.008',0.040,-0.120
'0:05.016',0.040,-0.100
'0:05.023',0.050,-0.090
'0:05.031',0.060,-0.130
'0:05.039',0.040,-0.140
'0:05.047',0.040,-0.130
'0:05.055',0.040,-0.150
'0:05.063',0.020,-0.160
'0:05.070',0.020,-0.140
'0:05.078',0.020,-0.130
'0:05.086',0.010,-0.160
'0:05.094',0.010,-0.180
'0:05.102',0.000,-0.150
'0:05.109',-0.010,-0.150
'0:05.117',-0.020,-0.180
'0:05.125',-0.020,-0.160
'0:05.133',-0.010,-0.160
'0:05.141',-0.020,-0.190
'0:05.148',-0.030,-0.190
'0:05.156',-0.020,-0.150
'0:05.164',-0.030,-0.180
'0:05.172',-0.030,-0.190
'0:05.180',-0.040,-0.180
'0:05.188',-0.030,-0.160
'0:05.195',-0.030,-0.170
'0:05.203',-0.040,-0.170
'0:05.211',-0.050,-0.140
'0:05.219',-0.050,-0.150
'0:05.227',-0.030,-0.150
'0:05.234',-0.040,-0.140
'0:05.242',0.010,-0.070
'0:05.250',0.030,-0.090
'0:05.258',0.010,-0.050
'0:05.266',0.060,0.020
'0:05.273',0.090,0.200
'0:05.281',0.140,0.210
'0:05.289',0.040,0.210
'0:05.297',-0.010,0.210
'0:05.305',-0.070,0.080
'0:05.313',-0.140,0.070
'0:05.320',-0.120,0.080
'0:05.328',-0.100,-0.030
'0:05.336',-0.080,-0.170
'0:05.344',-0.080,-0.190
'0:05.352',-0.100,-0.170
'0:05.359',-0.060,-0.150
'0:05.367',-0.100,-0.210
'0:05.375',-0.050,-0.280
'0:05.383',0.340,0.820
'0:05.391',0.590,3.620
'0:05.398',-0.410,5.110
'0:05.406',-1.790,5.110
'0:05.414',-1.750,1.880
'0:05.422',-1.160,-0.620
'0:05.430',-0.560,-0.420
'0:05.438',-0.210,-0.200
'0:05.445',-0.010,-0.300
'0:05.453',-0.010,-0.350
'0:05.461',0.010,-0.350
'0:05.469',0.040,-0.340
'0:05.477',0.050,-0.360
'0:05.484',0.070,-0.350
'0:05.492',0.090,-0.320
'0:05.500',0.080,-0.350
'0:05.508',0.090,-0.340
'0:05.516',0.090,-0.310
'0:05.523',0.100,-0.300
'0:05.531',0.110,-0.320
'0:05.539',0.130,-0.300
'0:05.547',0.130,-0.290
'0:05.555',0.140,-0.280
'0:05.563',0.160,-0.300
'0:05.570',0.160,-0.290
'0:05.578',0.190,-0.270
'0:05.586',0.180,-0.320
'0:05.594',0.200,-0.300
'0:05.602',0.210,-0.300
'0:05.609',0.210,-0.350
'0:05.617',0.190,-0.400
'0:05.625',0.170,-0.390
'0:05.633',0.160,-0.420
'0:05.641',0.150,-0.470
'0:05.648',0.120,-0.490
'0:05.656',0.090,-0.450
'0:05.664',0.050,-0.430
'0:05.672',0.030,-0.380
'0:05.680',0.010,-0.270
'0:05.688',0.020,-0.190
'0:05.695',0.020,-0.140
'0:05.703',0.020,-0.130
'0:05.711',0.040,-0.090
'0:05.719',0.030,-0.100
'0:05.727',0.030,-0.130
'0:05.734',0.020,-0.100
'0:05.742',0.050,-0.080
'0:05.750',0.040,-0.120
'0:05.758',0.040,-0.130
'0:05.766',0.040,-0.120
'0:05.773',0.040,-0.130
'0:05.781',0.040,-0.140
'0:05.789',0.040,-0.160
'0:05.797',0.060,-0.130
'0:05.805',0.060,-0.160
'0:05.813',0.070,-0.180
'0:05.820',0.050,-0.160
'0:05.828',0.070,-0.160
'0:05.836',0.070,-0.190
'0:05.844',0.060,-0.190
'0:05.852',0.060,-0.190
'0:05.859',0.070,-0.200
'0:05.867',0.050,-0.230
'0:05.875',0.060,-0.190
'0:05.883',0.030,-0.190
'0:05.891',0.020,-0.230
'0:05.898',0.020,-0.220
'0:05.906',0.030,-0.210
'0:05.914',0.020,-0.210
'0:05.922',0.010,-0.220
'0:05.930',0.020,-0.200
'0:05.938',0.010,-0.190
'0:05.945',0.000,-0.200
'0:05.953',0.000,-0.200
'0:05.961',0.000,-0.200
'0:05.969',0.010,-0.200
'0:05.977',-0.020,-0.240
'0:05.984',-0.010,-0.190
'0:05.992',-0.010,-0.190
'0:06.000',-0.020,-0.200
'0:06.008',-0.020,-0.200
'0:06.016',-0.020,-0.190
'0:06.023',-0.010,-0.210
'0:06.031',-0.020,-0.220
'0:06.039',-0.020,-0.180
'0:06.047',0.030,-0.150
'0:06.055',0.050,-0.160
'0:06.063',0.010,-0.130
'0:06.070',0.090,-0.040
'0:06.078',0.130,0.090
'0:06.086',0.140,0.160
'0:06.094',0.070,0.160
'0:06.102',0.020,0.160
'0:06.109',-0.050,0.010
'0:06.117',-0.110,-0.020
'0:06.125',-0.090,-0.010
'0:06.133',-0.090,-0.130
'0:06.141',-0.090,-0.270
'0:06.148',-0.100,-0.240
'0:06.156',-0.100,-0.250
'0:06.164',-0.090,-0.270
'0:06.172',-0.120,-0.310
'0:06.180',-0.060,-0.320
'0:06.188',0.260,0.810
'0:06.195',0.560,3.500
'0:06.203',-0.050,5.110
'0:06.211',-1.590,5.110
'0:06.219',-1.530,1.880
'0:06.227',-1.150,-0.710
'0:06.234',-0.620,-0.550
'0:06.242',-0.300,-0.280
'0:06.250',-0.040,-0.380
'0:06.258',-0.050,-0.390
'0:06.266',-0.030,-0.400
'0:06.273',0.000,-0.410
'0:06.281',0.030,-0.430
'0:06.289',0.020,-0.400
'0:06.297',0.040,-0.380
'0:06.305',0.060,-0.390
'0:06.313',0.080,-0.390
'0:06.320',0.070,-0.370
'0:06.328',0.090,-0.370
'0:06.336',0.100,-0.360
'0:06.344',0.090,-0.330
'0:06.352',0.130,-0.330
'0:06.359',0.130,-0.340
'0:06.367',0.150,-0.340
'0:06.375',0.140,-0.330
'0:06.383',0.160,-0.320
'0:06.391',0.180,-0.350
'0:06.398',0.180,-0.310
'0:06.406',0.190,-0.310
'0:06.414',0.190,-0.340
'0:06.422',0.190,-0.370
'0:06.430',0.170,-0.370
'0:06.438',0.170,-0.410
'0:06.445',0.160,-0.450
'0:06.453',0.130,-0.440
'0:06.461',0.120,-0.430
'0:06.469',0.090,-0.410
'0:06.477',0.060,-0.360
'0:06.484',0.030,-0.260
'0:06.492',0.030,-0.220
'0:06.500',0.020,-0.200
'0:06.508',0.010,-0.150
'0:06.516',0.040,-0.150
'0:06.523',0.030,-0.160
'0:06.531',0.030,-0.170
'0:06.539',0.040,-0.160
'0:06.547',0.030,-0.170
'0:06.555',0.050,-0.190
'0:06.563',0.050,-0.160
'0:06.570',0.060,-0.170
'0:06.578',0.060,-0.200
'0:06.586',0.050,-0.220
'0:06.594',0.070,-0.200
'0:06.602',0.050,-0.210
'0:06.609',0.050,-0.220
'0:06.617',0.050,-0.190
'0:06.625',0.060,-0.200
'0:06.633',0.050,-0.230
'0:06.641',0.040,-0.250
'0:06.648',0.040,-0.200
'0:06.656',0.040,-0.220
'0:06.664',0.020,-0.230
'0:06.672',0.020,-0.220
'0:06.680',0.030,-0.220
'0:06.688',0.020,-0.240
'0:06.695',0.010,-0.230
'0:06.703',0.020,-0.220
'0:06.711',0.010,-0.220
'0:06.719',0.020,-0.240
'0:06.727',0.010,-0.210
'0:06.734',0.010,-0.200
'0:06.742',0.000,-0.230
'0:06.750',0.010,-0.240
'0:06.758',0.000,-0.220
'0:06.766',0.010,-0.230
'0:06.773',0.010,-0.240
'0:06.781',0.000,-0.210
'0:06.789',0.000,-0.210
'0:06.797',0.000,-0.230
'0:06.805',0.000,-0.240
'0:06.813',-0.010,-0.210
'0:06.820',0.000,-0.210
'0:06.828',0.010,-0.240
'0:06.836',0.040,-0.170
'0:06.844',0.090,-0.130
'0:06.852',0.050,-0.100
'0:06.859',0.130,-0.070
'0:06.867',0.100,0.060
'0:06.875',0.200,0.220
'0:06.883',0.100,0.140
'0:06.891',0.050,0.180
'0:06.898',0.000,0.100
'0:06.906',-0.110,0.020
'0:06.914',-0.100,0.010
'0:06.922',-0.110,-0.020
'0:06.930',-0.080,-0.160
'0:06.938',-0.060,-0.210
'0:06.945',-0.090,-0.220
'0:06.953',-0.090,-0.180
'0:06.961',-0.080,-0.200
'0:06.969',-0.070,-0.430
'0:06.977',0.250,0.340
'0:06.984',0.500,2.530
'0:06.992',0.430,5.110
'0:07.000',-1.720,5.110
'0:07.008',-1.890,3.180
'0:07.016',-1.190,-0.630
'0:07.023',-0.790,-0.420
'0:07.031',-0.350,-0.230
'0:07.039',-0.020,-0.270
'0:07.047',0.000,-0.330
'0:07.055',0.000,-0.330
'0:07.063',0.020,-0.320
'0:07.070',0.050,-0.320
'0:07.078',0.060,-0.330
'0:07.086',0.070,-0.310
'0:07.094',0.100,-0.310
'0:07.102',0.110,-0.310
'0:07.109',0.110,-0.310
'0:07.117',0.120,-0.280
'0:07.125',0.140,-0.290
'0:07.133',0.140,-0.300
'0:07.141',0.160,-0.270
'0:07.148',0.180,-0.270
'0:07.156',0.190,-0.290
'0:07.164',0.200,-0.290
'0:07.172',0.220,-0.260
'0:07.180',0.250,-0.260
'0:07.188',0.250,-0.290
'0:07.195',0.260,-0.280
'0:07.203',0.260,-0.300
'0:07.211',0.260,-0.330
'0:07.219',0.240,-0.370
'0:07.227',0.220,-0.370
'0:07.234',0.220,-0.410
'0:07.242',0.170,-0.450
'0:07.250',0.120,-0.420
'0:07.258',0.080,-0.390
'0:07.266',0.050,-0.330
'0:07.273',0.020,-0.270
'0:07.281',0.010,-0.140
'0:07.289',0.010,-0.090
'0:07.297',0.030,-0.060
'0:07.305',0.030,-0.040
'0:07.313',0.040,-0.020
'0:07.320',0.040,-0.040
'0:07.328',0.050,-0.040
'0:07.336',0.040,-0.020
'0:07.344',0.060,-0.020
'0:07.352',0.050,-0.050
'0:07.359',0.040,-0.030
'0:07.367',0.040,-0.030
'0:07.375',0.050,-0.060
'0:07.383',0.040,-0.080
'0:07.391',0.040,-0.060
'0:07.398',0.050,-0.070
'0:07.406',0.050,-0.090
'0:07.414',0.040,-0.100
'0:07.422',0.050,-0.090
'0:07.430',0.040,-0.110
'0:07.438',0.040,-0.130
'0:07.445',0.040,-0.100
'0:07.453',0.040,-0.110
'0:07.461',0.030,-0.130
'0:07.469',0.020,-0.140
'0:07.477',0.010,-0.130
'0:07.484',0.000,-0.130
'0:07.492',-0.010,-0.150
'0:07.500',-0.010,-0.140
'0:07.508',-0.010,-0.140
'0:07.516',-0.010,-0.160
'0:07.523',-0.020,-0.180
'0:07.531',-0.020,-0.150
'0:07.539',-0.030,-0.150
'0:07.547',-0.020,-0.180
'0:07.555',-0.040,-0.160
'0:07.563',-0.040,-0.160
'0:07.570',-0.040,-0.180
'0:07.578',-0.050,-0.190
'0:07.586',-0.050,-0.140
'0:07.594',-0.050,-0.150
'0:07.602',-0.050,-0.150
'0:07.609',-0.070,-0.130
'0:07.617',-0.060,-0.120
'0:07.625',-0.040,-0.090
'0:07.633',0.020,-0.080
'0:07.641',-0.020,-0.010
'0:07.648',0.050,0.040
'0:07.656',0.060,0.150
'0:07.664',0.130,0.280
'0:07.672',0.030,0.240
'0:07.680',-0.020,0.240
'0:07.688',-0.070,0.110
'0:07.695',-0.180,0.100
'0:07.703',-0.160,0.110
'0:07.711',-0.150,0.000
'0:07.719',-0.130,-0.130
'0:07.727',-0.130,-0.140
'0:07.734',-0.130,-0.140
'0:07.742',-0.140,-0.140
'0:07.750',-0.130,-0.120
'0:07.758',-0.120,-0.330
'0:07.766',0.210,0.450
'0:07.773',0.440,2.540
'0:07.781',0.550,5.110
'0:07.789',-1.750,5.110
'0:07.797',-1.930,3.430
'0:07.805',-1.220,-0.510
'0:07.813',-0.940,-0.320
'0:07.820',-0.380,-0.240
'0:07.828',-0.040,-0.250
'0:07.836',-0.050,-0.270
'0:07.844',-0.020,-0.300
'0:07.852',0.010,-0.310
'0:07.859',0.020,-0.310
'0:07.867',0.020,-0.300
'0:07.875',0.050,-0.310
'0:07.883',0.050,-0.320
'0:07.891',0.060,-0.270
'0:07.898',0.080,-0.260
'0:07.906',0.090,-0.280
'0:07.914',0.090,-0.270
'0:07.922',0.100,-0.240
'0:07.930',0.110,-0.260
'0:07.938',0.130,-0.260
'0:07.945',0.140,-0.240
'0:07.953',0.160,-0.230
'0:07.961',0.180,-0.250
'0:07.969',0.200,-0.260
'0:07.977',0.210,-0.240
'0:07.984',0.230,-0.270
'0:07.992',0.230,-0.300
'0:08.000',0.220,-0.290
'0:08.008',0.210,-0.330
'0:08.016',0.180,-0.390
'0:08.023',0.150,-0.420
'0:08.031',0.130,-0.420
'0:08.039',0.100,-0.420
'0:08.047',0.050,-0.400
'0:08.055',0.010,-0.320
'0:08.063',-0.010,-0.230
'0:08.070',-0.010,-0.170
'0:08.078',-0.010,-0.130
'0:08.086',-0.020,-0.040
'0:08.094',0.010,-0.030
'0:08.102',0.020,-0.030
'0:08.109',0.040,-0.020
'0:08.117',0.040,-0.020
'0:08.125',0.040,-0.040
'0:08.133',0.040,-0.060
'0:08.141',0.040,-0.030
'0:08.148',0.040,-0.020
'0:08.156',0.040,-0.050
'0:08.164',0.030,-0.060
'0:08.172',0.050,-0.040
'0:08.180',0.050,-0.060
'0:08.188',0.040,-0.080
'0:08.195',0.050,-0.060
'0:08.203',0.080,-0.050
'0:08.211',0.070,-0.080
'0:08.219',0.080,-0.100
'0:08.227',0.080,-0.070
'0:08.234',0.080,-0.080
'0:08.242',0.070,-0.110
'0:08.250',0.060,-0.100
'0:08.258',0.060,-0.090
'0:08.266',0.070,-0.110
'0:08.273',0.050,-0.120
'0:08.281',0.040,-0.090
'0:08.289',0.040,-0.110
'0:08.297',0.040,-0.150
'0:08.305',0.020,-0.140
'0:08.313',0.050,-0.140
'0:08.320',0.030,-0.120
'0:08.328',0.020,-0.150
'0:08.336',0.000,-0.110
'0:08.344',0.020,-0.110
'0:08.352',0.010,-0.140
'0:08.359',-0.010,-0.130
'0:08.367',0.000,-0.100
'0:08.375',0.000,-0.120
'0:08.383',-0.030,-0.150
'0:08.391',-0.020,-0.100
'0:08.398',-0.030,-0.110
'0:08.406',-0.020,-0.120
'0:08.414',-0.030,-0.130
'0:08.422',-0.020,-0.090
'0:08.430',-0.010,-0.090
'0:08.438',0.030,-0.050
'0:08.445',0.010,-0.050
'0:08.453',0.040,0.010
'0:08.461',0.070,0.030
'0:08.469',0.140,0.260
'0:08.477',0.100,0.230
'0:08.484',0.040,0.240
'0:08.492',-0.010,0.180
'0:08.500',-0.130,0.090
'0:08.508',-0.140,0.080
'0:08.516',-0.120,0.040
'0:08.523',-0.120,-0.120
'0:08.531',-0.120,-0.150
'0:08.539',-0.110,-0.170
'0:08.547',-0.110,-0.180
'0:08.555',-0.100,-0.160
'0:08.563',-0.110,-0.250
'0:08.570',0.030,-0.080
'0:08.578',0.340,1.240
'0:08.586',0.710,4.390
'0:08.594',-0.980,5.110
'0:08.602',-1.840,4.780
'0:08.609',-1.580,0.740
'0:08.617',-1.260,-0.420
'0:08.625',-0.520,-0.350
'0:08.633',-0.170,-0.210
'0:08.641',-0.060,-0.270
'0:08.648',-0.050,-0.290
'0:08.656',-0.030,-0.320
'0:08.664',-0.010,-0.320
'0:08.672',0.000,-0.290
'0:08.680',0.020,-0.290
'0:08.688',0.040,-0.290
'0:08.695',0.040,-0.280
'0:08.703',0.070,-0.280
'0:08.711',0.060,-0.280
'0:08.719',0.080,-0.290
'0:08.727',0.100,-0.250
'0:08.734',0.110,-0.260
'0:08.742',0.120,-0.260
'0:08.750',0.130,-0.260
'0:08.758',0.150,-0.250
'0:08.766',0.150,-0.270
'0:08.773',0.180,-0.280
'0:08.781',0.180,-0.250
'0:08.789',0.200,-0.280
'0:08.797',0.200,-0.310
'0:08.805',0.190,-0.330
'0:08.813',0.200,-0.350
'0:08.820',0.180,-0.400
'0:08.828',0.160,-0.450
'0:08.836',0.130,-0.440
'0:08.844',0.120,-0.480
'0:08.852',0.070,-0.460
'0:08.859',0.030,-0.410
'0:08.867',0.000,-0.300
'0:08.875',-0.010,-0.230
'0:08.883',-0.020,-0.170
'0:08.891',-0.010,-0.090
'0:08.898',0.000,-0.060
'0:08.906',0.020,-0.070
'0:08.914',0.010,-0.050
'0:08.922',0.030,-0.040
'0:08.930',0.030,-0.070
'0:08.938',0.030,-0.080
'0:08.945',0.040,-0.050
'0:08.953',0.050,-0.040
'0:08.961',0.050,-0.060
'0:08.969',0.040,-0.080
'0:08.977',0.050,-0.070
'0:08.984',0.040,-0.090
'0:08.992',0.070,-0.100
'0:09.000',0.060,-0.070
'0:09.008',0.070,-0.100
'0:09.016',0.060,-0.110
'0:09.023',0.060,-0.110
'0:09.031',0.060,-0.090
'0:09.039',0.060,-0.130
'0:09.047',0.040,-0.140
'0:09.055',0.040,-0.120
'0:09.063',0.040,-0.110
'0:09.070',0.040,-0.130
'0:09.078',0.030,-0.160
'0:09.086',0.000,-0.120
'0:09.094',0.020,-0.150
'0:09.102',0.000,-0.170
'0:09.109',-0.010,-0.150
'0:09.117',0.000,-0.140
'0:09.125',0.010,-0.160
'0:09.133',-0.010,-0.170
'0:09.141',-0.010,-0.140
'0:09.148',-0.020,-0.130
'0:09.156',-0.020,-0.170
'0:09.164',-0.020,-0.160
'0:09.172',-0.040,-0.140
'0:09.180',-0.020,-0.160
'0:09.188',-0.020,-0.180
'0:09.195',-0.030,-0.140
'0:09.203',-0.020,-0.150
'0:09.211',-0.030,-0.170
'0:09.219',-0.040,-0.170
'0:09.227',-0.030,-0.140
'0:09.234',0.000,-0.100
'0:09.242',0.040,-0.120
'0:09.250',0.000,-0.050
'0:09.258',0.080,0.000
'0:09.266',0.060,0.080
'0:09.273',0.160,0.260
'0:09.281',0.080,0.200
'0:09.289',0.030,0.210
'0:09.297',-0.010,0.110
'0:09.305',-0.150,0.080
'0:09.313',-0.100,0.060
'0:09.320',-0.110,-0.020
'0:09.328',-0.100,-0.180
'0:09.336',-0.080,-0.160
'0:09.344',-0.110,-0.160
'0:09.352',-0.090,-0.190
'0:09.359',-0.090,-0.150
'0:09.367',-0.090,-0.320
'0:09.375',0.230,0.500
'0:09.383',0.490,2.710
'0:09.391',0.600,5.110
'0:09.398',-1.550,5.110
'0:09.406',-1.700,3.290
'0:09.414',-1.110,-0.630
'0:09.422',-0.800,-0.380
'0:09.430',-0.420,-0.250
'0:09.438',-0.040,-0.270
'0:09.445',-0.050,-0.320
'0:09.453',-0.010,-0.320
'0:09.461',0.010,-0.340
'0:09.469',0.020,-0.340
'0:09.477',0.030,-0.320
'0:09.484',0.040,-0.330
'0:09.492',0.070,-0.330
'0:09.500',0.060,-0.310
'0:09.508',0.070,-0.310
'0:09.516',0.090,-0.320
'0:09.523',0.080,-0.300
'0:09.531',0.090,-0.290
'0:09.539',0.100,-0.260
'0:09.547',0.110,-0.290
'0:09.555',0.110,-0.270
'0:09.563',0.140,-0.270
'0:09.570',0.140,-0.280
'0:09.578',0.150,-0.300
'0:09.586',0.140,-0.250
'0:09.594',0.140,-0.280
'0:09.602',0.140,-0.300
'0:09.609',0.140,-0.310
'0:09.617',0.130,-0.330
'0:09.625',0.110,-0.370
'0:09.633',0.090,-0.410
'0:09.641',0.070,-0.400
'0:09.648',0.060,-0.420
'0:09.656',0.020,-0.390
'0:09.664',0.020,-0.350
'0:09.672',0.010,-0.280
'0:09.680',-0.010,-0.210
'0:09.688',-0.030,-0.170
'0:09.695',-0.020,-0.110
'0:09.703',-0.020,-0.080
'0:09.711',0.010,-0.090
'0:09.719',-0.010,-0.100
'0:09.727',0.000,-0.090
'0:09.734',-0.010,-0.100
'0:09.742',-0.010,-0.140
'0:09.750',-0.010,-0.090
'0:09.758',-0.010,-0.140
'0:09.766',-0.010,-0.130
'0:09.773',-0.010,-0.170
'0:09.781',-0.020,-0.120
'0:09.789',-0.010,-0.180
'0:09.797',-0.010,-0.180
'0:09.805',-0.020,-0.170
'0:09.813',0.000,-0.150
'0:09.820',0.010,-0.190
'0:09.828',-0.010,-0.190
'0:09.836',-0.020,-0.160
'0:09.844',-0.030,-0.180
'0:09.852',-0.010,-0.210
'0:09.859',-0.020,-0.160
'0:09.867',-0.030,-0.180
'0:09.875',-0.020,-0.210
'0:09.883',-0.010,-0.240
'0:09.891',-0.020,-0.210
'0:09.898',-0.020,-0.210
'0:09.906',-0.020,-0.220
'0:09.914',-0.030,-0.180
'0:09.922',-0.020,-0.190
'0:09.930',-0.020,-0.200
'0:09.938',-0.040,-0.210
'0:09.945',-0.040,-0.210
'0:09.953',-0.030,-0.200
'0:09.961',-0.030,-0.230
'0:09.969',-0.030,-0.220
'0:09.977',-0.040,-0.210
'0:09.984',-0.040,-0.250
'0:09.992',-0.050,-0.250
'0:10.000',-0.040,-0.220
'0:10.008',-0.040,-0.230
'0:10.016',-0.030,-0.230
'0:10.023',-0.030,-0.210
'0:10.031',0.030,-0.170
'0:10.039',-0.010,-0.170
'0:10.047',0.060,-0.130
'0:10.055',0.040,-0.030
'0:10.063',0.150,0.160
'0:10.070',0.090,0.070
'0:10.078',0.020,0.100
'0:10.086',-0.020,0.060
'0:10.094',-0.120,-0.040
'0:10.102',-0.130,-0.070
'0:10.109',-0.130,-0.100
'0:10.117',-0.100,-0.220
'0:10.125',-0.110,-0.290
'0:10.133',-0.120,-0.300
'0:10.141',-0.130,-0.270
'0:10.148',-0.110,-0.260
'0:10.156',-0.120,-0.410
'0:10.164',0.150,0.210
'0:10.172',0.440,1.890
'0:10.180',0.730,5.080
'0:10.188',-1.120,5.110
'0:10.195',-1.580,4.090
'0:10.203',-1.230,-0.390
'0:10.211',-0.900,-0.460
'0:10.219',-0.540,-0.400
'0:10.227',-0.090,-0.270
'0:10.234',-0.060,-0.380
'0:10.242',-0.050,-0.400
'0:10.250',-0.020,-0.370
'0:10.258',0.010,-0.380
'0:10.266',0.030,-0.380
'0:10.273',0.040,-0.380
'0:10.281',0.060,-0.360
'0:10.289',0.050,-0.360
'0:10.297',0.080,-0.380
'0:10.305',0.080,-0.340
'0:10.313',0.100,-0.330
'0:10.320',0.120,-0.340
'0:10.328',0.130,-0.330
'0:10.336',0.140,-0.300
'0:10.344',0.180,-0.310
'0:10.352',0.180,-0.330
'0:10.359',0.190,-0.290
'0:10.367',0.230,-0.300
'0:10.375',0.250,-0.310
'0:10.383',0.250,-0.330
'0:10.391',0.260,-0.320
'0:10.398',0.270,-0.350
'0:10.406',0.250,-0.390
'0:10.414',0.240,-0.400
'0:10.422',0.220,-0.430
'0:10.430',0.200,-0.480
'0:10.438',0.150,-0.490
'0:10.445',0.100,-0.450
'0:10.453',0.080,-0.400
'0:10.461',0.050,-0.340
'0:10.469',0.040,-0.240
'0:10.477',0.030,-0.170
'0:10.484',0.030,-0.150
'0:10.492',0.030,-0.150
'0:10.500',0.040,-0.110
'0:10.508',0.040,-0.100
'0:10.516',0.050,-0.110
'0:10.523',0.050,-0.100
'0:10.531',0.060,-0.100
'0:10.539',0.050,-0.110
'0:10.547',0.070,-0.130
'0:10.555',0.050,-0.110
'0:10.563',0.080,-0.110
'0:10.570',0.070,-0.140
'0:10.578',0.070,-0.150
'0:10.586',0.080,-0.120
'0:10.594',0.070,-0.150
'0:10.602',0.070,-0.170
'0:10.609',0.070,-0.140
'0:10.617',0.070,-0.150
'0:10.625',0.060,-0.170
'0:10.633',0.050,-0.190
'0:10.641',0.050,-0.160
'0:10.648',0.050,-0.180
'0:10.656',0.040,-0.190
'0:10.664',0.030,-0.170
'0:10.672',0.050,-0.180
'0:10.680',0.030,-0.200
'0:10.688',0.030,-0.210
'0:10.695',0.020,-0.190
'0:10.703',0.020,-0.200
'0:10.711',0.020,-0.230
'0:10.719',0.020,-0.200
'0:10.727',0.030,-0.210
'0:10.734',0.030,-0.210
'0:10.742',0.020,-0.220
'0:10.750',0.020,-0.190
'0:10.758',0.020,-0.200
'0:10.766',0.010,-0.220
'0:10.773',0.010,-0.200
'0:10.781',0.010,-0.190
'0:10.789',0.010,-0.190
'0:10.797',0.010,-0.210
'0:10.805',0.000,-0.190
'0:10.813',0.000,-0.180
'0:10.820',0.000,-0.210
'0:10.828',-0.010,-0.190
'0:10.836',0.000,-0.170
'0:10.844',0.020,-0.140
'0:10.852',0.060,-0.110
'0:10.859',0.050,-0.070
'0:10.867',0.080,-0.030
'0:10.875',0.100,0.020
'0:10.883',0.180,0.240
'0:10.891',0.130,0.200
'0:10.898',0.070,0.210
'0:10.906',0.010,0.150
'0:10.914',-0.100,0.080
'0:10.922',-0.100,0.080
'0:10.930',-0.090,0.030
'0:10.938',-0.080,-0.100
'0:10.945',-0.080,-0.150
'0:10.953',-0.060,-0.190
'0:10.961',-0.090,-0.180
'0:10.969',-0.080,-0.150
'0:10.977',-0.070,-0.280
'0:10.984',0.110,-0.110
'0:10.992',0.420,1.300
'0:11.000',0.820,4.510
'0:11.008',-1.300,5.110
'0:11.016',-1.870,4.610
'0:11.023',-1.530,0.550
'0:11.031',-1.220,-0.450
'0:11.039',-0.430,-0.360
'0:11.047',-0.070,-0.260
'0:11.055',-0.020,-0.300
'0:11.063',0.010,-0.330
'0:11.070',0.020,-0.340
'0:11.078',0.030,-0.360
'0:11.086',0.060,-0.330
'0:11.094',0.080,-0.340
'0:11.102',0.090,-0.350
'0:11.109',0.090,-0.310
'0:11.117',0.110,-0.300
'0:11.125',0.130,-0.310
'0:11.133',0.140,-0.310
'0:11.141',0.140,-0.280
'0:11.148',0.170,-0.290
'0:11.156',0.160,-0.310
'0:11.164',0.180,-0.280
'0:11.172',0.200,-0.270
'0:11.180',0.210,-0.290
'0:11.188',0.230,-0.290
'0:11.195',0.230,-0.260
'0:11.203',0.270,-0.300
'0:11.211',0.250,-0.330
'0:11.219',0.260,-0.320
'0:11.227',0.260,-0.360
'0:11.234',0.240,-0.420
'0:11.242',0.220,-0.450
'0:11.250',0.190,-0.460
'0:11.258',0.160,-0.480
'0:11.266',0.120,-0.480
'0:11.273',0.070,-0.390
'0:11.281',0.040,-0.310
'0:11.289',0.040,-0.240
'0:11.297',0.020,-0.170
'0:11.305',0.020,-0.070
'0:11.313',0.030,-0.060
'0:11.320',0.040,-0.060
'0:11.328',0.030,-0.030
'0:11.336',0.040,0.000
'0:11.344',0.040,-0.040
'0:11.352',0.040,-0.030
'0:11.359',0.040,-0.020
'0:11.367',0.030,-0.030
'0:11.375',0.030,-0.050
'0:11.383',0.040,-0.030
'0:11.391',0.040,-0.030
'0:11.398',0.030,-0.070
'0:11.406',0.050,-0.070
'0:11.414',0.050,-0.050
'0:11.422',0.050,-0.080
'0:11.430',0.050,-0.090
'0:11.438',0.050,-0.080
'0:11.445',0.060,-0.080
'0:11.453',0.060,-0.100
'0:11.461',0.060,-0.140
'0:11.469',0.040,-0.110
'0:11.477',0.060,-0.120
'0:11.484',0.060,-0.130
'0:11.492',0.030,-0.120
'0:11.500',0.050,-0.110
'0:11.508',0.040,-0.120
'0:11.516',0.030,-0.140
'0:11.523',0.020,-0.110
'0:11.531',0.020,-0.120
'0:11.539',0.020,-0.140
'0:11.547',0.000,-0.120
'0:11.555',0.020,-0.120
'0:11.563',0.000,-0.130
'0:11.570',0.010,-0.150
'0:11.578',0.000,-0.120
'0:11.586',0.010,-0.130
'0:11.594',0.000,-0.150
'0:11.602',0.010,-0.160
'0:11.609',0.010,-0.130
'0:11.617',0.010,-0.140
'0:11.625',0.000,-0.160
'0:11.633',0.000,-0.140
'0:11.641',0.000,-0.130
'0:11.648',0.000,-0.140
'0:11.656',0.010,-0.150
'0:11.664',0.060,-0.060
'0:11.672',0.060,-0.080
'0:11.680',0.050,-0.060
'0:11.688',0.100,0.020
'0:11.695',0.140,0.220
'0:11.703',0.160,0.200
'0:11.711',0.060,0.190
'0:11.719',0.030,0.200
'0:11.727',-0.080,0.080
'0:11.734',-0.120,0.050
'0:11.742',-0.110,0.060
'0:11.750',-0.090,-0.060
'0:11.758',-0.080,-0.170
'0:11.766',-0.080,-0.190
'0:11.773',-0.100,-0.150
'0:11.781',-0.090,-0.150
'0:11.789',-0.100,-0.250
'0:11.797',0.020,-0.140
'0:11.805',0.390,1.240
'0:11.813',0.760,4.390
'0:11.820',-1.100,5.110
'0:11.828',-1.850,4.780
'0:11.836',-1.540,0.670
'0:11.844',-1.230,-0.450
'0:11.852',-0.510,-0.370
'0:11.859',-0.140,-0.170
'0:11.867',-0.040,-0.270
'0:11.875',-0.030,-0.320
'0:11.883',-0.020,-0.290
'0:11.891',0.030,-0.300
'0:11.898',0.040,-0.310
'0:11.906',0.060,-0.310
'0:11.914',0.070,-0.280
'0:11.922',0.090,-0.290
'0:11.930',0.090,-0.300
'0:11.938',0.100,-0.270
'0:11.945',0.120,-0.260
'0:11.953',0.130,-0.270
'0:11.961',0.150,-0.280
'0:11.969',0.150,-0.240
'0:11.977',0.170,-0.250
'0:11.984',0.190,-0.260
'0:11.992',0.180,-0.240
'0:12.000',0.200,-0.240
'0:12.008',0.210,-0.260
'0:12.016',0.230,-0.290
'0:12.023',0.240,-0.280
'0:12.031',0.240,-0.310
'0:12.039',0.230,-0.360
'0:12.047',0.210,-0.380
'0:12.055',0.190,-0.400
'0:12.063',0.190,-0.450
'0:12.070',0.140,-0.470
'0:12.078',0.090,-0.410
'0:12.086',0.080,-0.380
'0:12.094',0.040,-0.320
'0:12.102',0.010,-0.220
'0:12.109',0.020,-0.130
'0:12.117',0.020,-0.080
'0:12.125',0.030,-0.080
'0:12.133',0.010,-0.020
'0:12.141',0.030,-0.020
'0:12.148',0.050,-0.030
'0:12.156',0.030,-0.030
'0:12.164',0.040,-0.010
'0:12.172',0.050,-0.030
'0:12.180',0.040,-0.040
'0:12.188',0.030,-0.020
'0:12.195',0.040,-0.030
'0:12.203',0.050,-0.060
'0:12.211',0.040,-0.080
'0:12.219',0.050,-0.050
'0:12.227',0.070,-0.080
'0:12.234',0.060,-0.100
'0:12.242',0.050,-0.090
'0:12.250',0.060,-0.090
'0:12.258',0.070,-0.100
'0:12.266',0.070,-0.130
'0:12.273',0.060,-0.080
'0:12.281',0.060,-0.100
'0:12.289',0.040,-0.120
'0:12.297',0.030,-0.110
'0:12.305',0.020,-0.110
'0:12.313',0.020,-0.120
'0:12.320',0.000,-0.140
'0:12.328',-0.010,-0.090
'0:12.336',0.000,-0.100
'0:12.344',-0.010,-0.130
'0:12.352',-0.020,-0.150
'0:12.359',-0.030,-0.130
'0:12.367',-0.040,-0.150
'0:12.375',-0.040,-0.160
'0:12.383',-0.050,-0.130
'0:12.391',-0.030,-0.130
'0:12.398',-0.040,-0.150
'0:12.406',-0.050,-0.150
'0:12.414',-0.060,-0.140
'0:12.422',-0.060,-0.140
'0:12.430',-0.070,-0.170
'0:12.438',-0.080,-0.140
'0:12.445',-0.070,-0.130
'0:12.453',-0.090,-0.150
'0:12.461',-0.090,-0.140
'0:12.469',-0.080,-0.110
'0:12.477',-0.050,-0.060
'0:12.484',-0.010,-0.070
'0:12.492',-0.040,-0.010
'0:12.500',0.040,0.030
'0:12.508',0.040,0.150
'0:12.516',0.100,0.230
'0:12.523',0.010,0.240
'0:12.531',-0.030,0.250
'0:12.539',-0.070,0.100
'0:12.547',-0.190,0.080
'0:12.555',-0.160,0.080
'0:12.563',-0.170,-0.020
'0:12.570',-0.140,-0.170
'0:12.578',-0.140,-0.170
'0:12.586',-0.130,-0.170
'0:12.594',-0.130,-0.160
'0:12.602',-0.140,-0.180
'0:12.609',-0.110,-0.340
'0:12.617',0.240,0.620
'0:12.625',0.470,3.040
'0:12.633',0.210,5.110
'0:12.641',-1.740,5.110
'0:12.648',-1.800,2.800
'0:12.656',-1.150,-0.670
'0:12.664',-0.750,-0.390
'0:12.672',-0.380,-0.240
'0:12.680',-0.070,-0.280
'0:12.688',-0.080,-0.300
'0:12.695',-0.030,-0.330
'0:12.703',-0.020,-0.330
'0:12.711',-0.010,-0.340
'0:12.719',0.000,-0.330
'0:12.727',0.020,-0.320
'0:12.734',0.040,-0.320
'0:12.742',0.030,-0.290
'0:12.750',0.060,-0.300
'0:12.758',0.080,-0.290
'0:12.766',0.090,-0.290
'0:12.773',0.100,-0.260
'0:12.781',0.120,-0.250
'0:12.789',0.140,-0.270
'0:12.797',0.120,-0.250
'0:12.805',0.130,-0.250
'0:12.813',0.150,-0.270
'0:12.820',0.150,-0.280
'0:12.828',0.160,-0.250
'0:12.836',0.160,-0.270
'0:12.844',0.180,-0.300
'0:12.852',0.130,-0.300
'0:12.859',0.140,-0.340
'0:12.867',0.110,-0.380
'0:12.875',0.080,-0.420
'0:12.883',0.060,-0.390
'0:12.891',0.080,-0.410
'0:12.898',0.030,-0.380
'0:12.906',0.010,-0.310
'0:12.914',-0.010,-0.240
'0:12.922',-0.020,-0.180
'0:12.930',-0.030,-0.120
'0:12.938',-0.030,-0.070
'0:12.945',-0.010,-0.040
'0:12.953',-0.010,-0.100
'0:12.961',-0.010,-0.090
'0:12.969',-0.010,-0.060
'0:12.977',-0.010,-0.080
'0:12.984',-0.030,-0.100
'0:12.992',-0.010,-0.090
'0:13.000',0.010,-0.080
'0:13.008',0.020,-0.120
'0:13.016',0.000,-0.140
'0:13.023',-0.010,-0.130
'0:13.031',0.010,-0.120
'0:13.039',0.020,-0.160
'0:13.047',0.010,-0.140
'0:13.055',0.020,-0.160
'0:13.063',0.020,-0.160
'0:13.070',0.040,-0.190
'0:13.078',0.020,-0.160
'0:13.086',0.020,-0.170
'0:13.094',0.010,-0.180
'0:13.102',0.000,-0.160
'0:13.109',0.020,-0.150
'0:13.117',-0.010,-0.170
'0:13.125',0.000,-0.160
'0:13.133',-0.030,-0.170
'0:13.141',-0.030,-0.170
'0:13.148',0.000,-0.190
'0:13.156',0.000,-0.200
'0:13.164',-0.020,-0.170
'0:13.172',-0.010,-0.200
'0:13.180',-0.020,-0.220
'0:13.188',-0.030,-0.170
'0:13.195',-0.020,-0.160
'0:13.203',-0.030,-0.200
'0:13.211',-0.020,-0.220
'0:13.219',-0.040,-0.190
'0:13.227',-0.030,-0.200
'0:13.234',-0.030,-0.210
'0:13.242',-0.030,-0.190
'0:13.250',-0.030,-0.200
'0:13.258',-0.040,-0.200
'0:13.266',-0.010,-0.200
'0:13.273',0.040,-0.130
'0:13.281',0.000,-0.140
'0:13.289',0.080,-0.110
'0:13.297',0.080,0.020
'0:13.305',0.160,0.200
'0:13.313',0.100,0.130
'0:13.320',0.050,0.140
'0:13.328',0.000,0.080
'0:13.336',-0.110,-0.010
'0:13.344',-0.110,-0.050
'0:13.352',-0.120,-0.070
'0:13.359',-0.090,-0.210
'0:13.367',-0.100,-0.260
'0:13.375',-0.110,-0.280
'0:13.383',-0.120,-0.240
'0:13.391',-0.100,-0.220
'0:13.398',-0.120,-0.370
'0:13.406',0.150,0.300
'0:13.414',0.470,2.100
'0:13.422',0.690,5.110
'0:13.430',-1.180,5.110
'0:13.438',-1.540,3.950
'0:13.445',-1.190,-0.390
'0:13.453',-0.850,-0.480
'0:13.461',-0.530,-0.430
'0:13.469',-0.090,-0.280
'0:13.477',-0.060,-0.350
'0:13.484',-0.030,-0.380
'0:13.492',-0.010,-0.360
'0:13.500',0.010,-0.350
'0:13.508',0.040,-0.360
'0:13.516',0.040,-0.370
'0:13.523',0.050,-0.320
'0:13.531',0.070,-0.330
'0:13.539',0.060,-0.330
'0:13.547',0.070,-0.300
'0:13.555',0.090,-0.290
'0:13.563',0.100,-0.310
'0:13.570',0.100,-0.320
'0:13.578',0.130,-0.290
'0:13.586',0.130,-0.300
'0:13.594',0.150,-0.330
'0:13.602',0.160,-0.320
'0:13.609',0.190,-0.320
'0:13.617',0.200,-0.340
'0:13.625',0.220,-0.350
'0:13.633',0.200,-0.360
'0:13.641',0.210,-0.380
'0:13.648',0.210,-0.420
'0:13.656',0.180,-0.440
'0:13.664',0.170,-0.470
'0:13.672',0.150,-0.530
'0:13.680',0.110,-0.520
'0:13.688',0.080,-0.470
'0:13.695',0.050,-0.420
'0:13.703',0.040,-0.360
'0:13.711',0.030,-0.250
'0:13.719',0.040,-0.200
'0:13.727',0.040,-0.170
'0:13.734',0.030,-0.150
'0:13.742',0.030,-0.120
'0:13.750',0.030,-0.120
'0:13.758',0.050,-0.130
'0:13.766',0.050,-0.110
'0:13.773',0.050,-0.110
'0:13.781',0.050,-0.130
'0:13.789',0.050,-0.140
'0:13.797',0.060,-0.110
'0:13.805',0.070,-0.130
'0:13.813',0.070,-0.150
'0:13.820',0.070,-0.140
'0:13.828',0.080,-0.140
'0:13.836',0.070,-0.160
'0:13.844',0.060,-0.160
'0:13.852',0.060,-0.140
'0:13.859',0.060,-0.140
'0:13.867',0.060,-0.160
'0:13.875',0.050,-0.150
'0:13.883',0.050,-0.140
'0:13.891',0.050,-0.150
'0:13.898',0.040,-0.160
'0:13.906',0.020,-0.130
'0:13.914',0.030,-0.140
'0:13.922',0.030,-0.170
'0:13.930',0.010,-0.170
'0:13.938',0.020,-0.160
'0:13.945',0.010,-0.170
'0:13.953',0.000,-0.190
'0:13.961',0.000,-0.150
'0:13.969',0.010,-0.160
'0:13.977',-0.010,-0.180
'0:13.984',-0.010,-0.180
'0:13.992',0.000,-0.170
'0:14.000',-0.020,-0.180
'0:14.008',-0.020,-0.210
'0:14.016',-0.030,-0.170
'0:14.023',-0.010,-0.180
'0:14.031',-0.030,-0.220
'0:14.039',-0.030,-0.200
'0:14.047',-0.030,-0.190
'0:14.055',-0.040,-0.200
'0:14.063',-0.040,-0.220
'0:14.070',-0.030,-0.160
'0:14.078',0.030,-0.110
'0:14.086',0.030,-0.130
'0:14.094',0.050,-0.070
'0:14.102',0.060,-0.010
'0:14.109',0.140,0.190
'0:14.117',0.140,0.140
'0:14.125',0.040,0.200
'0:14.133',0.020,0.180
'0:14.141',-0.070,0.040
'0:14.148',-0.120,0.030
'0:14.156',-0.100,0.030
'0:14.164',-0.090,-0.100
'0:14.172',-0.070,-0.210
'0:14.180',-0.080,-0.190
'0:14.188',-0.080,-0.190
'0:14.195',-0.070,-0.190
'0:14.203',-0.070,-0.290
'0:14.211',0.090,-0.160
'0:14.219',0.430,1.200
'0:14.227',0.820,4.340
'0:14.234',-1.200,5.110
'0:14.242',-1.890,4.770
'0:14.250',-1.560,0.780
'0:14.258',-1.260,-0.540
'0:14.266',-0.470,-0.400
'0:14.273',-0.100,-0.220
'0:14.281',-0.020,-0.330
'0:14.289',-0.020,-0.350
'0:14.297',0.030,-0.350
'0:14.305',0.050,-0.360
'0:14.313',0.050,-0.380
'0:14.320',0.070,-0.330
'0:14.328',0.090,-0.340
'0:14.336',0.090,-0.350
'0:14.344',0.100,-0.330
'0:14.352',0.110,-0.320
'0:14.359',0.130,-0.320
'0:14.367',0.130,-0.340
'0:14.375',0.140,-0.300
'0:14.383',0.160,-0.300
'0:14.391',0.190,-0.320
'0:14.398',0.180,-0.320
'0:14.406',0.220,-0.310
'0:14.414',0.230,-0.300
'0:14.422',0.240,-0.320
'0:14.430',0.260,-0.310
'0:14.438',0.280,-0.320
'0:14.445',0.280,-0.370
'0:14.453',0.260,-0.400
'0:14.461',0.250,-0.410
'0:14.469',0.240,-0.470
'0:14.477',0.210,-0.510
'0:14.484',0.150,-0.480
'0:14.492',0.120,-0.460
'0:14.500',0.070,-0.420
'0:14.508',0.030,-0.360
'0:14.516',0.010,-0.260
'0:14.523',0.020,-0.180
'0:14.531',0.010,-0.140
'0:14.539',0.010,-0.080
'0:14.547',0.020,-0.050
'0:14.555',0.020,-0.070
'0:14.563',0.040,-0.060
'0:14.570',0.020,-0.050
'0:14.578',0.030,-0.040
'0:14.586',0.020,-0.070
'0:14.594',0.030,-0.050
'0:14.602',0.020,-0.070
'0:14.609',0.040,-0.070
'0:14.617',0.020,-0.100
'0:14.625',0.040,-0.060
'0:14.633',0.040,-0.070
'0:14.641',0.040,-0.100
'0:14.648',0.050,-0.090
'0:14.656',0.050,-0.100
'0:14.664',0.050,-0.110
'0:14.672',0.060,-0.150
'0:14.680',0.050,-0.110
'0:14.688',0.060,-0.130
'0:14.695',0.070,-0.150
'0:14.703',0.050,-0.150
'0:14.711',0.060,-0.140
'0:14.719',0.050,-0.160
'0:14.727',0.030,-0.180
'0:14.734',0.020,-0.150
'0:14.742',0.040,-0.160
'0:14.750',0.030,-0.180
'0:14.758',0.020,-0.160
'0:14.766',0.000,-0.150
'0:14.773',0.000,-0.160
'0:14.781',0.000,-0.190
'0:14.789',0.000,-0.160
'0:14.797',0.000,-0.170
'0:14.805',0.010,-0.180
'0:14.813',0.000,-0.190
'0:14.820',-0.010,-0.160
'0:14.828',0.000,-0.180
'0:14.836',0.000,-0.180
'0:14.844',-0.010,-0.170
'0:14.852',-0.010,-0.170
'0:14.859',0.000,-0.180
'0:14.867',-0.010,-0.190
'0:14.875',0.000,-0.150
'0:14.883',0.040,-0.090
'0:14.891',0.060,-0.100
'0:14.898',0.040,-0.050
'0:14.906',0.120,-0.010
'0:14.914',0.140,0.150
'0:14.922',0.180,0.200
'0:14.930',0.070,0.210
'0:14.938',0.050,0.220
'0:14.945',-0.030,0.100
'0:14.953',-0.110,0.060
'0:14.961',-0.080,0.070
'0:14.969',-0.100,-0.040
'0:14.977',-0.080,-0.180
'0:14.984',-0.070,-0.160
'0:14.992',-0.080,-0.160
'0:15.000',-0.070,-0.170
'0:15.008',-0.080,-0.170
'0:15.016',-0.050,-0.320
'0:15.023',0.360,0.660
'0:15.031',0.550,3.270
'0:15.039',-0.240,5.110
'0:15.047',-1.830,5.110
'0:15.055',-1.830,2.450
'0:15.063',-1.170,-0.670
'0:15.070',-0.620,-0.380
'0:15.078',-0.260,-0.200
'0:15.086',-0.020,-0.270
'0:15.094',-0.020,-0.300
'0:15.102',0.020,-0.300
'0:15.109',0.040,-0.320
'0:15.117',0.050,-0.350
'0:15.125',0.060,-0.310
'0:15.133',0.080,-0.310
'0:15.141',0.090,-0.330
'0:15.148',0.090,-0.280
'0:15.156',0.100,-0.280
'0:15.164',0.120,-0.280
'0:15.172',0.120,-0.300
'0:15.180',0.130,-0.240
'0:15.188',0.150,-0.270
'0:15.195',0.180,-0.260
'0:15.203',0.180,-0.250
'0:15.211',0.200,-0.240
'0:15.219',0.220,-0.260
'0:15.227',0.230,-0.270
'0:15.234',0.240,-0.250
'0:15.242',0.260,-0.260
'0:15.250',0.260,-0.300
'0:15.258',0.240,-0.320
'0:15.266',0.220,-0.340
'0:15.273',0.190,-0.390
'0:15.281',0.170,-0.430
'0:15.289',0.130,-0.420
'0:15.297',0.090,-0.400
'0:15.305',0.060,-0.380
'0:15.313',0.030,-0.310
'0:15.320',0.000,-0.220
'0:15.328',0.000,-0.150
'0:15.336',-0.010,-0.110
'0:15.344',-0.010,-0.040
'0:15.352',0.000,-0.020
'0:15.359',0.030,-0.030
'0:15.367',0.000,-0.040
'0:15.375',0.020,-0.020
'0:15.383',0.020,-0.040
'0:15.391',0.010,-0.060
'0:15.398',0.010,-0.030
'0:15.406',0.010,-0.040
'0:15.414',0.020,-0.060
'0:15.422',0.020,-0.070
'0:15.430',0.020,-0.040
'0:15.438',0.010,-0.060
'0:15.445',0.020,-0.090
'0:15.453',0.010,-0.070
'0:15.461',0.030,-0.080
'0:15.469',0.020,-0.110
'0:15.477',0.020,-0.130
'0:15.484',0.020,-0.090
'0:15.492',0.030,-0.110
'0:15.500',0.020,-0.120
'0:15.508',0.000,-0.110
'0:15.516',0.030,-0.120
'0:15.523',0.000,-0.140
'0:15.531',0.000,-0.160
'0:15.539',-0.020,-0.130
'0:15.547',-0.010,-0.120
'0:15.555',-0.040,-0.160
'0:15.563',-0.030,-0.140
'0:15.570',-0.030,-0.130
'0:15.578',-0.040,-0.150
'0:15.586',-0.030,-0.160
'0:15.594',-0.050,-0.140
'0:15.602',-0.050,-0.130
'0:15.609',-0.040,-0.170
'0:15.617',-0.040,-0.150
'0:15.625',-0.040,-0.140
'0:15.633',-0.040,-0.160
'0:15.641',-0.030,-0.190
'0:15.648',-0.030,-0.140
'0:15.656',-0.020,-0.160
'0:15.664',-0.010,-0.160
'0:15.672',0.020,-0.110
'0:15.680',0.040,-0.070
'0:15.688',0.030,-0.050
'0:15.695',0.100,-0.030
'0:15.703',0.100,0.160
'0:15.711',0.170,0.230
'0:15.719',0.070,0.200
'0:15.727',0.040,0.200
'0:15.734',-0.050,0.110
'0:15.742',-0.100,0.050
'0:15.750',-0.090,0.030
'0:15.758',-0.110,-0.030
'0:15.766',-0.070,-0.140
'0:15.773',-0.060,-0.200
'0:15.781',-0.080,-0.210
'0:15.789',-0.080,-0.160
'0:15.797',-0.090,-0.160
'0:15.805',-0.070,-0.340
'0:15.813',0.330,0.700
'0:15.820',0.540,3.270
'0:15.828',-0.150,5.110
'0:15.836',-1.770,5.110
'0:15.844',-1.750,2.420
'0:15.852',-1.140,-0.630
'0:15.859',-0.600,-0.410
'0:15.867',-0.280,-0.180
'0:15.875',-0.020,-0.260
'0:15.883',-0.030,-0.310
'0:15.891',-0.010,-0.340
'0:15.898',0.010,-0.320
'0:15.906',0.040,-0.330
'0:15.914',0.050,-0.340
'0:15.922',0.050,-0.320
'0:15.930',0.070,-0.290
'0:15.938',0.060,-0.320
'0:15.945',0.070,-0.330
'0:15.953',0.080,-0.280
'0:15.961',0.090,-0.280
'0:15.969',0.110,-0.290
'0:15.977',0.100,-0.270
'0:15.984',0.130,-0.270
'0:15.992',0.150,-0.290
'0:16.000',0.140,-0.300
'0:16.008',0.140,-0.260
'0:16.016',0.160,-0.270
'0:16.023',0.160,-0.280
'0:16.031',0.170,-0.300
'0:16.039',0.170,-0.300
'0:16.047',0.160,-0.340
'0:16.055',0.130,-0.380
'0:16.063',0.120,-0.360
'0:16.070',0.100,-0.390
'0:16.078',0.090,-0.430
'0:16.086',0.050,-0.400
'0:16.094',0.020,-0.340
'0:16.102',0.010,-0.290
'0:16.109',0.000,-0.240
'0:16.117',-0.010,-0.120
'0:16.125',0.000,-0.080
'0:16.133',0.000,-0.090
'0:16.141',-0.010,-0.040
'0:16.148',0.020,-0.040
'0:16.156',0.040,-0.080
'0:16.164',0.040,-0.090
'0:16.172',0.030,-0.080
'0:16.180',0.030,-0.060
'0:16.188',0.030,-0.090
'0:16.195',0.040,-0.090
'0:16.203',0.050,-0.080
'0:16.211',0.050,-0.110
'0:16.219',0.050,-0.140
'0:16.227',0.050,-0.140
'0:16.234',0.060,-0.140
'0:16.242',0.070,-0.160
'0:16.250',0.050,-0.170
'0:16.258',0.060,-0.140
'0:16.266',0.060,-0.170
'0:16.273',0.050,-0.180
'0:16.281',0.050,-0.140
'0:16.289',0.040,-0.160
'0:16.297',0.040,-0.180
'0:16.305',0.010,-0.200
'0:16.313',0.030,-0.180
'0:16.320',0.040,-0.200
'0:16.328',0.020,-0.200
'0:16.336',0.020,-0.170
'0:16.344',0.010,-0.170
'0:16.352',0.000,-0.200
'0:16.359',0.000,-0.190
'0:16.367',-0.020,-0.180
'0:16.375',-0.010,-0.190
'0:16.383',-0.010,-0.220
'0:16.391',-0.010,-0.190
'0:16.398',-0.010,-0.200
'0:16.406',-0.010,-0.210
'0:16.414',-0.010,-0.220
'0:16.422',-0.020,-0.220
'0:16.430',0.000,-0.220
'0:16.438',-0.010,-0.240
'0:16.445',-0.020,-0.210
'0:16.453',0.000,-0.210
'0:16.461',0.040,-0.170
'0:16.469',0.060,-0.170
'0:16.477',0.030,-0.110
'0:16.484',0.110,-0.080
'0:16.492',0.150,0.050
'0:16.500',0.190,0.170
'0:16.508',0.120,0.160
'0:16.516',0.090,0.150
'0:16.523',0.010,0.020
'0:16.531',-0.080,0.000
'0:16.539',-0.050,-0.040
'0:16.547',-0.040,-0.120
'0:16.555',-0.080,-0.220
'0:16.563',-0.040,-0.240
'0:16.570',-0.060,-0.270
'0:16.578',-0.070,-0.260
'0:16.586',-0.090,-0.260
'0:16.594',-0.010,-0.340
'0:16.602',0.300,0.760
'0:16.609',0.610,3.300
'0:16.617',-0.010,5.110
'0:16.625',-1.500,5.110
'0:16.633',-1.440,2.420
'0:16.641',-1.120,-0.710
'0:16.648',-0.620,-0.530
'0:16.656',-0.340,-0.340
'0:16.664',-0.040,-0.360
'0:16.672',-0.040,-0.360
'0:16.680',-0.030,-0.390
'0:16.688',0.010,-0.420
'0:16.695',0.020,-0.390
'0:16.703',0.020,-0.400
'0:16.711',0.050,-0.400
'0:16.719',0.040,-0.390
'0:16.727',0.060,-0.350
'0:16.734',0.070,-0.360
'0:16.742',0.080,-0.350
'0:16.750',0.070,-0.320
'0:16.758',0.100,-0.320
'0:16.766',0.100,-0.330
'0:16.773',0.110,-0.310
'0:16.781',0.130,-0.290
'0:16.789',0.140,-0.290
'0:16.797',0.160,-0.290
'0:16.805',0.160,-0.260
'0:16.813',0.180,-0.250
'0:16.820',0.170,-0.290
'0:16.828',0.190,-0.300
'0:16.836',0.170,-0.290
'0:16.844',0.180,-0.330
'0:16.852',0.160,-0.370
'0:16.859',0.140,-0.380
'0:16.867',0.120,-0.390
'0:16.875',0.110,-0.400
'0:16.883',0.060,-0.390
'0:16.891',0.040,-0.300
'0:16.898',0.040,-0.260
'0:16.906',0.020,-0.220
'0:16.914',0.010,-0.160
'0:16.922',0.030,-0.120
'0:16.930',0.020,-0.140
'0:16.938',0.030,-0.150
'0:16.945',0.050,-0.130
'0:16.953',0.050,-0.130
'0:16.961',0.070,-0.150
'0:16.969',0.060,-0.160
'0:16.977',0.070,-0.140
'0:16.984',0.080,-0.160
'0:16.992',0.080,-0.190
'0:17.000',0.090,-0.160
'0:17.008',0.100,-0.180
'0:17.016',0.100,-0.210
'0:17.023',0.090,-0.190
'0:17.031',0.090,-0.160
'0:17.039',0.100,-0.180
'0:17.047',0.090,-0.180
'0:17.055',0.090,-0.170
'0:17.063',0.090,-0.170
'0:17.070',0.070,-0.180
'0:17.078',0.070,-0.190
'0:17.086',0.060,-0.170
'0:17.094',0.070,-0.180
'0:17.102',0.060,-0.200
'0:17.109',0.050,-0.170
'0:17.117',0.050,-0.180
'0:17.125',0.040,-0.180
'0:17.133',0.050,-0.190
'0:17.141',0.030,-0.170
'0:17.148',0.040,-0.170
'0:17.156',0.020,-0.190
'0:17.164',0.030,-0.180
'0:17.172',0.020,-0.180
'0:17.180',0.030,-0.190
'0:17.188',0.030,-0.200
'0:17.195',0.010,-0.160
'0:17.203',0.010,-0.170
'0:17.211',0.020,-0.190
'0:17.219',0.010,-0.190
'0:17.227',0.000,-0.180
'0:17.234',0.010,-0.190
'0:17.242',0.020,-0.180
'0:17.250',0.070,-0.100
'0:17.258',0.050,-0.110
'0:17.266',0.110,-0.090
'0:17.273',0.110,-0.050
'0:17.281',0.200,0.180
'0:17.289',0.170,0.140
'0:17.297',0.080,0.150
'0:17.305',0.040,0.150
'0:17.313',-0.050,0.030
'0:17.320',-0.100,0.000
'0:17.328',-0.070,-0.030
'0:17.336',-0.060,-0.140
'0:17.344',-0.060,-0.240
'0:17.352',-0.050,-0.270
'0:17.359',-0.060,-0.240
'0:17.367',-0.040,-0.210
'0:17.375',-0.050,-0.290
'0:17.383',0.080,-0.340
'0:17.391',0.440,0.810
'0:17.398',0.770,3.800
'0:17.406',-0.850,5.110
'0:17.414',-1.850,5.110
'0:17.422',-1.670,1.510
'0:17.430',-1.230,-0.630
'0:17.438',-0.500,-0.480
'0:17.445',-0.140,-0.250
'0:17.453',0.010,-0.320
'0:17.461',0.020,-0.370
'0:17.469',0.050,-0.380
'0:17.477',0.080,-0.360
'0:17.484',0.090,-0.370
'0:17.492',0.100,-0.380
'0:17.500',0.110,-0.350
'0:17.508',0.120,-0.330
'0:17.516',0.140,-0.340
'0:17.523',0.140,-0.340
'0:17.531',0.150,-0.310
'0:17.539',0.170,-0.320
'0:17.547',0.180,-0.330
'0:17.555',0.190,-0.280
'0:17.563',0.220,-0.300
'0:17.570',0.230,-0.290
'0:17.578',0.250,-0.290
'0:17.586',0.260,-0.260
'0:17.594',0.280,-0.300
'0:17.602',0.300,-0.310
'0:17.609',0.300,-0.310
'0:17.617',0.310,-0.320
'0:17.625',0.310,-0.360
'0:17.633',0.290,-0.400
'0:17.641',0.270,-0.410
'0:17.648',0.250,-0.450
'0:17.656',0.210,-0.480
'0:17.664',0.160,-0.440
'0:17.672',0.130,-0.390
'0:17.680',0.090,-0.350
'0:17.688',0.080,-0.280
'0:17.695',0.040,-0.180
'0:17.703',0.060,-0.130
'0:17.711',0.060,-0.090
'0:17.719',0.060,-0.080
'0:17.727',0.080,-0.050
'0:17.734',0.090,-0.050
'0:17.742',0.070,-0.080
'0:17.750',0.080,-0.050
'0:17.758',0.070,-0.060
'0:17.766',0.070,-0.060
'0:17.773',0.070,-0.080
'0:17.781',0.080,-0.060
'0:17.789',0.070,-0.080
'0:17.797',0.080,-0.110
'0:17.805',0.070,-0.080
'0:17.813',0.080,-0.080
'0:17.820',0.090,-0.100
'0:17.828',0.070,-0.120
'0:17.836',0.080,-0.100
'0:17.844',0.090,-0.130
'0:17.852',0.090,-0.150
'0:17.859',0.090,-0.140
'0:17.867',0.090,-0.140
'0:17.875',0.090,-0.160
'0:17.883',0.070,-0.180
'0:17.891',0.070,-0.160
'0:17.898',0.060,-0.160
'0:17.906',0.050,-0.180
'0:17.914',0.030,-0.160
'0:17.922',0.040,-0.150
'0:17.930',0.020,-0.170
'0:17.938',0.020,-0.190
'0:17.945',0.010,-0.160
'0:17.953',0.010,-0.170
'0:17.961',0.000,-0.190
'0:17.969',0.000,-0.180
'0:17.977',0.000,-0.160
'0:17.984',0.000,-0.180
'0:17.992',0.000,-0.190
'0:18.000',-0.020,-0.170
'0:18.008',-0.010,-0.150
'0:18.016',-0.020,-0.190
'0:18.023',-0.010,-0.180
'0:18.031',0.000,-0.150
'0:18.039',0.040,-0.110
'0:18.047',0.060,-0.120
'0:18.055',0.040,-0.050
'0:18.063',0.120,-0.020
'0:18.070',0.120,0.110
'0:18.078',0.180,0.220
'0:18.086',0.080,0.200
'0:18.094',0.040,0.210
'0:18.102',-0.050,0.090
'0:18.109',-0.140,0.040
'0:18.117',-0.110,0.060
'0:18.125',-0.120,-0.030
'0:18.133',-0.100,-0.190
'0:18.141',-0.090,-0.190
'0:18.148',-0.100,-0.180
'0:18.156',-0.090,-0.190
'0:18.164',-0.110,-0.170
'0:18.172',-0.090,-0.350
'0:18.180',0.260,0.320
'0:18.188',0.450,2.340
'0:18.195',0.370,5.110
'0:18.203',-1.820,5.110
'0:18.211',-1.940,3.360
'0:18.219',-1.190,-0.590
'0:18.227',-0.840,-0.370
'0:18.234',-0.360,-0.260
'0:18.242',-0.030,-0.270
'0:18.250',-0.040,-0.310
'0:18.258',-0.020,-0.320
'0:18.266',0.000,-0.350
'0:18.273',0.040,-0.350
'0:18.281',0.050,-0.320
'0:18.289',0.060,-0.330
'0:18.297',0.080,-0.340
'0:18.305',0.070,-0.310
'0:18.313',0.080,-0.300
'0:18.320',0.090,-0.310
'0:18.328',0.100,-0.320
'0:18.336',0.110,-0.280
'0:18.344',0.140,-0.290
'0:18.352',0.140,-0.300
'0:18.359',0.150,-0.280
'0:18.367',0.170,-0.260
'0:18.375',0.190,-0.280
'0:18.383',0.190,-0.300
'0:18.391',0.210,-0.280
'0:18.398',0.220,-0.300
'0:18.406',0.220,-0.330
'0:18.414',0.210,-0.350
'0:18.422',0.200,-0.370
'0:18.430',0.190,-0.410
'0:18.438',0.160,-0.460
'0:18.445',0.130,-0.450
'0:18.453',0.100,-0.460
'0:18.461',0.050,-0.440
'0:18.469',0.010,-0.380
'0:18.477',0.010,-0.280
'0:18.484',-0.010,-0.210
'0:18.492',-0.010,-0.150
'0:18.500',-0.010,-0.080
'0:18.508',0.010,-0.060
'0:18.516',0.010,-0.080
'0:18.523',0.010,-0.070
'0:18.531',0.010,-0.060
'0:18.539',0.020,-0.080
'0:18.547',0.000,-0.100
'0:18.555',0.010,-0.070
'0:18.563',0.010,-0.070
'0:18.570',0.010,-0.090
'0:18.578',0.010,-0.090
'0:18.586',0.010,-0.100
'0:18.594',0.020,-0.120
'0:18.602',0.030,-0.150
'0:18.609',0.040,-0.110
'0:18.617',0.030,-0.100
'0:18.625',0.040,-0.140
'0:18.633',0.030,-0.140
'0:18.641',0.040,-0.110
'0:18.648',0.050,-0.140
'0:18.656',0.040,-0.160
'0:18.664',0.020,-0.140
'0:18.672',0.030,-0.160
'0:18.680',0.030,-0.160
'0:18.688',0.020,-0.180
'0:18.695',0.020,-0.130
'0:18.703',0.030,-0.160
'0:18.711',0.010,-0.170
'0:18.719',0.010,-0.160
'0:18.727',0.010,-0.160
'0:18.734',0.000,-0.170
'0:18.742',0.000,-0.190
'0:18.750',-0.010,-0.170
'0:18.758',-0.010,-0.170
'0:18.766',-0.010,-0.200
'0:18.773',-0.030,-0.170
'0:18.781',-0.010,-0.170
'0:18.789',-0.020,-0.190
'0:18.797',-0.020,-0.200
'0:18.805',-0.030,-0.180
'0:18.813',-0.010,-0.170
'0:18.820',0.040,-0.130
'0:18.828',0.050,-0.110
'0:18.836',0.050,-0.050
'0:18.844',0.100,-0.030
'0:18.852',0.200,0.200
'0:18.859',0.140,0.230
'0:18.867',0.090,0.230
'0:18.875',0.050,0.150
'0:18.883',-0.080,0.070
'0:18.891',-0.090,0.060
'0:18.898',-0.100,0.000
'0:18.906',-0.090,-0.160
'0:18.914',-0.080,-0.190
'0:18.922',-0.090,-0.210
'0:18.930',-0.100,-0.210
'0:18.938',-0.100,-0.200
'0:18.945',-0.100,-0.250
'0:18.953',0.050,-0.150
'0:18.961',0.380,1.160
'0:18.969',0.720,4.340
'0:18.977',-1.190,5.110
'0:18.984',-1.870,4.690
'0:18.992',-1.490,0.650
'0:19.000',-1.230,-0.480
'0:19.008',-0.500,-0.410
'0:19.016',-0.140,-0.260
'0:19.023',-0.070,-0.330
'0:19.031',-0.060,-0.360
'0:19.039',-0.050,-0.380
'0:19.047',-0.010,-0.390
'0:19.055',0.010,-0.380
'0:19.063',0.020,-0.360
'0:19.070',0.010,-0.380
'0:19.078',0.030,-0.370
'0:19.086',0.040,-0.360
'0:19.094',0.050,-0.380
'0:19.102',0.070,-0.390
'0:19.109',0.070,-0.350
'0:19.117',0.090,-0.350
'0:19.125',0.100,-0.370
'0:19.133',0.100,-0.360
'0:19.141',0.120,-0.340
'0:19.148',0.140,-0.340
'0:19.156',0.150,-0.340
'0:19.164',0.160,-0.330
'0:19.172',0.170,-0.340
'0:19.180',0.140,-0.370
'0:19.188',0.160,-0.380
'0:19.195',0.160,-0.360
'0:19.203',0.140,-0.420
'0:19.211',0.110,-0.450
'0:19.219',0.100,-0.470
'0:19.227',0.080,-0.480
'0:19.234',0.060,-0.490
'0:19.242',0.020,-0.440
'0:19.250',-0.010,-0.350
'0:19.258',0.000,-0.250
'0:19.266',0.000,-0.200
'0:19.273',0.000,-0.150
'0:19.281',0.000,-0.100
'0:19.289',0.000,-0.100
'0:19.297',0.020,-0.130
'0:19.305',0.010,-0.090
'0:19.313',0.040,-0.110
'0:19.320',0.030,-0.120
'0:19.328',0.030,-0.140
'0:19.336',0.010,-0.100
'0:19.344',0.040,-0.120
'0:19.352',0.030,-0.140
'0:19.359',0.030,-0.120
'0:19.367',0.030,-0.140
'0:19.375',0.030,-0.160
'0:19.383',0.020,-0.200
'0:19.391',0.030,-0.180
'0:19.398',0.030,-0.180
'0:19.406',0.020,-0.190
'0:19.414',0.030,-0.190
'0:19.422',0.030,-0.180
'0:19.430',0.010,-0.220
'0:19.438',0.020,-0.220
'0:19.445',-0.010,-0.200
'0:19.453',0.020,-0.200
'0:19.461',0.010,-0.220
'0:19.469',-0.010,-0.230
'0:19.477',-0.020,-0.210
'0:19.484',-0.020,-0.200
'0:19.492',-0.030,-0.230
'0:19.500',-0.040,-0.220
'0:19.508',-0.040,-0.240
'0:19.516',-0.040,-0.240
'0:19.523',-0.060,-0.240
'0:19.531',-0.040,-0.240
'0:19.539',-0.060,-0.230
'0:19.547',-0.040,-0.260
'0:19.555',-0.060,-0.240
'0:19.563',-0.060,-0.230
'0:19.570',-0.060,-0.250
'0:19.578',-0.060,-0.280
'0:19.586',-0.070,-0.220
'0:19.594',-0.060,-0.250
'0:19.602',-0.020,-0.220
'0:19.609',0.010,-0.160
'0:19.617',-0.010,-0.160
'0:19.625',0.070,-0.160
'0:19.633',0.090,0.010
'0:19.641',0.120,0.140
'0:19.648',0.100,0.100
'0:19.656',0.030,0.120
'0:19.664',-0.020,-0.020
'0:19.672',-0.110,-0.060
'0:19.680',-0.130,-0.100
'0:19.688',-0.110,-0.210
'0:19.695',-0.120,-0.290
'0:19.703',-0.120,-0.320
'0:19.711',-0.130,-0.350
'0:19.719',-0.120,-0.340
'0:19.727',-0.150,-0.310
'0:19.734',-0.150,-0.460
'0:19.742',0.150,0.320
'0:19.750',0.450,2.260
'0:19.758',0.570,5.110
'0:19.766',-1.340,5.110
'0:19.773',-1.580,3.640
'0:19.781',-1.200,-0.590
'0:19.789',-0.860,-0.570
'0:19.797',-0.570,-0.530
'0:19.805',-0.130,-0.400
'0:19.813',-0.100,-0.460
'0:19.820',-0.060,-0.460
'0:19.828',-0.070,-0.490
'0:19.836',-0.040,-0.480
'0:19.844',-0.040,-0.430
'0:19.852',-0.010,-0.470
'0:19.859',-0.010,-0.480
'0:19.867',0.010,-0.430
'0:19.875',0.010,-0.430
'0:19.883',0.020,-0.430
'0:19.891',0.030,-0.410
'0:19.898',0.050,-0.400
'0:19.906',0.060,-0.430
'0:19.914',0.060,-0.390
'0:19.922',0.090,-0.340
'0:19.930',0.100,-0.350
'0:19.938',0.100,-0.340
'0:19.945',0.120,-0.340
'0:19.953',0.120,-0.310
'0:19.961',0.130,-0.320
'0:19.969',0.130,-0.340
'0:19.977',0.120,-0.310
'0:19.984',0.160,-0.310
'0:19.992',0.140,-0.360
'0:20.000',0.120,-0.370
'0:20.008',0.090,-0.380
'0:20.016',0.080,-0.410
'0:20.023',0.070,-0.400
'0:20.031',0.020,-0.330
'0:20.039',0.010,-0.300
'0:20.047',0.000,-0.280
'0:20.055',-0.020,-0.250
'0:20.063',-0.030,-0.220
'0:20.070',-0.020,-0.230
'0:20.078',-0.030,-0.240
'0:20.086',-0.030,-0.240
'0:20.094',-0.010,-0.230
'0:20.102',0.000,-0.280
'0:20.109',-0.020,-0.290
'0:20.117',-0.010,-0.270
'0:20.125',0.020,-0.280
'0:20.133',0.020,-0.320
'0:20.141',0.020,-0.300
'0:20.148',0.020,-0.290
'0:20.156',0.030,-0.310
'0:20.164',0.020,-0.310
'0:20.172',0.010,-0.280
'0:20.180',0.020,-0.280
'0:20.188',0.020,-0.280
'0:20.195',0.010,-0.270
'0:20.203',0.010,-0.270
'0:20.211',0.000,-0.280
'0:20.219',-0.010,-0.300
'0:20.227',-0.010,-0.270
'0:20.234',0.010,-0.280
'0:20.242',0.000,-0.280
'0:20.250',-0.020,-0.280
'0:20.258',0.000,-0.250
'0:20.266',-0.020,-0.270
'0:20.273',-0.020,-0.300
'0:20.281',-0.030,-0.270
'0:20.289',-0.020,-0.280
'0:20.297',-0.020,-0.300
'0:20.305',-0.030,-0.310
'0:20.313',-0.020,-0.290
'0:20.320',-0.040,-0.300
'0:20.328',-0.020,-0.310
'0:20.336',-0.030,-0.280
'0:20.344',-0.020,-0.270
'0:20.352',-0.020,-0.270
'0:20.359',0.040,-0.230
'0:20.367',0.020,-0.190
'0:20.375',0.070,-0.160
'0:20.383',0.090,-0.100
'0:20.391',0.180,0.120
'0:20.398',0.120,0.090
'0:20.406',0.100,0.100
'0:20.414',0.030,-0.020
'0:20.422',-0.070,-0.040
'0:20.430',-0.080,-0.050
'0:20.438',-0.080,-0.140
'0:20.445',-0.090,-0.280
'0:20.453',-0.070,-0.300
'0:20.461',-0.080,-0.320
'0:20.469',-0.080,-0.320
'0:20.477',-0.090,-0.290
'0:20.484',-0.060,-0.460
'0:20.492',0.230,0.020
'0:20.500',0.540,1.720
'0:20.508',0.690,5.020
'0:20.516',-1.640,5.110
'0:20.523',-1.920,4.100
'0:20.531',-1.370,-0.250
'0:20.539',-1.100,-0.470
'0:20.547',-0.480,-0.460
'0:20.555',-0.050,-0.350
'0:20.563',-0.030,-0.390
'0:20.570',0.000,-0.410
'0:20.578',0.020,-0.440
'0:20.586',0.020,-0.420
'0:20.594',0.060,-0.420
'0:20.602',0.070,-0.430
'0:20.609',0.070,-0.440
'0:20.617',0.070,-0.390
'0:20.625',0.090,-0.390
'0:20.633',0.100,-0.400
'0:20.641',0.120,-0.400
'0:20.648',0.140,-0.370
'0:20.656',0.160,-0.390
'0:20.664',0.180,-0.390
'0:20.672',0.190,-0.340
'0:20.680',0.220,-0.350
'0:20.688',0.240,-0.340
'0:20.695',0.250,-0.320
'0:20.703',0.270,-0.320
'0:20.711',0.290,-0.330
'0:20.719',0.290,-0.360
'0:20.727',0.290,-0.340
'0:20.734',0.290,-0.380
'0:20.742',0.260,-0.410
'0:20.750',0.250,-0.430
'0:20.758',0.210,-0.430
'0:20.766',0.170,-0.450
'0:20.773',0.120,-0.430
'0:20.781',0.070,-0.350
'0:20.789',0.040,-0.260
'0:20.797',0.040,-0.220
'0:20.805',0.010,-0.160
'0:20.813',0.020,-0.090
'0:20.820',0.020,-0.090
'0:20.828',0.030,-0.110
'0:20.836',0.010,-0.060
'0:20.844',0.040,-0.080
'0:20.852',0.030,-0.110
'0:20.859',0.040,-0.100
'0:20.867',0.030,-0.090
'0:20.875',0.030,-0.110
'0:20.883',0.040,-0.140
'0:20.891',0.030,-0.100
'0:20.898',0.050,-0.120
'0:20.906',0.060,-0.130
'0:20.914',0.060,-0.160
'0:20.922',0.060,-0.130
'0:20.930',0.070,-0.140
'0:20.938',0.070,-0.170
'0:20.945',0.070,-0.150
'0:20.953',0.070,-0.150
'0:20.961',0.080,-0.180
'0:20.969',0.060,-0.200
'0:20.977',0.060,-0.170
'0:20.984',0.060,-0.190
'0:20.992',0.050,-0.190
'0:21.000',0.050,-0.170
'0:21.008',0.050,-0.160
'0:21.016',0.040,-0.180
'0:21.023',0.040,-0.200
'0:21.031',0.030,-0.160
'0:21.039',0.030,-0.150
'0:21.047',0.020,-0.180
'0:21.055',0.000,-0.170
'0:21.063',0.020,-0.150
'0:21.070',0.000,-0.180
'0:21.078',0.000,-0.190
'0:21.086',-0.010,-0.160
'0:21.094',0.000,-0.160
'0:21.102',-0.020,-0.180
'0:21.109',0.000,-0.170
'0:21.117',0.000,-0.150
'0:21.125',0.040,-0.110
'0:21.133',0.060,-0.120
'0:21.141',0.040,-0.040
'0:21.148',0.090,-0.020
'0:21.156',0.190,0.190
'0:21.164',0.140,0.230
'0:21.172',0.100,0.250
'0:21.180',0.060,0.160
'0:21.188',-0.060,0.050
'0:21.195',-0.110,0.050
'0:21.203',-0.080,0.000
'0:21.211',-0.070,-0.150
'0:21.219',-0.070,-0.220
'0:21.227',-0.080,-0.210
'0:21.234',-0.080,-0.210
'0:21.242',-0.090,-0.200
'0:21.250',-0.090,-0.240
'0:21.258',0.040,-0.180
'0:21.266',0.410,1.070
'0:21.273',0.710,4.190
'0:21.281',-1.080,5.110
'0:21.289',-1.980,5.020
'0:21.297',-1.710,1.110
'0:21.305',-1.300,-0.570
'0:21.313',-0.500,-0.400
'0:21.320',-0.150,-0.230
'0:21.328',-0.030,-0.320
'0:21.336',-0.030,-0.330
'0:21.344',0.010,-0.330
'0:21.352',0.020,-0.340
'0:21.359',0.050,-0.330
'0:21.367',0.070,-0.310
'0:21.375',0.080,-0.320
'0:21.383',0.090,-0.330
'0:21.391',0.090,-0.290
'0:21.398',0.100,-0.280
'0:21.406',0.120,-0.290
'0:21.414',0.130,-0.280
'0:21.422',0.140,-0.270
'0:21.430',0.170,-0.270
'0:21.438',0.180,-0.290
'0:21.445',0.180,-0.250
'0:21.453',0.200,-0.250
'0:21.461',0.220,-0.270
'0:21.469',0.240,-0.290
'0:21.477',0.260,-0.260
'0:21.484',0.270,-0.290
'0:21.492',0.250,-0.310
'0:21.500',0.230,-0.320
'0:21.508',0.240,-0.340
'0:21.516',0.210,-0.390
'0:21.523',0.180,-0.420
'0:21.531',0.150,-0.390
'0:21.539',0.100,-0.380
'0:21.547',0.060,-0.350
'0:21.555',0.030,-0.250
'0:21.563',0.010,-0.180
'0:21.570',0.000,-0.130
'0:21.578',0.000,-0.100
'0:21.586',0.000,-0.030
'0:21.594',0.020,-0.020
'0:21.602',0.020,-0.050
'0:21.609',0.010,-0.030
'0:21.617',0.030,-0.020
'0:21.625',0.040,-0.050
'0:21.633',0.020,-0.070
'0:21.641',0.010,-0.040
'0:21.648',0.030,-0.060
'0:21.656',0.020,-0.090
'0:21.664',0.020,-0.090
'0:21.672',0.040,-0.080
'0:21.680',0.040,-0.100
'0:21.688',0.050,-0.120
'0:21.695',0.050,-0.100
'0:21.703',0.060,-0.110
'0:21.711',0.060,-0.130
'0:21.719',0.070,-0.130
'0:21.727',0.060,-0.110
'0:21.734',0.060,-0.140
'0:21.742',0.060,-0.170
'0:21.750',0.060,-0.140
'0:21.758',0.060,-0.140
'0:21.766',0.060,-0.150
'0:21.773',0.030,-0.170
'0:21.781',0.040,-0.130
'0:21.789',0.030,-0.140
'0:21.797',0.030,-0.160
'0:21.805',0.010,-0.150
'0:21.813',0.010,-0.150
'0:21.820',0.010,-0.170
'0:21.828',0.020,-0.180
'0:21.836',-0.010,-0.130
'0:21.844',0.000,-0.150
'0:21.852',-0.010,-0.170
'0:21.859',-0.010,-0.170
'0:21.867',-0.010,-0.150
'0:21.875',0.010,-0.150
'0:21.883',0.020,-0.150
'0:21.891',0.060,-0.080
'0:21.898',0.040,-0.060
'0:21.906',0.100,-0.070
'0:21.914',0.180,0.160
'0:21.922',0.150,0.260
'0:21.930',0.130,0.230
'0:21.938',0.050,0.170
'0:21.945',-0.050,0.080
'0:21.953',-0.080,0.080
'0:21.961',-0.110,0.010
'0:21.969',-0.080,-0.130
'0:21.977',-0.090,-0.190
'0:21.984',-0.090,-0.200
'0:21.992',-0.100,-0.220
'0:22.000',-0.100,-0.190
'0:22.008',-0.110,-0.210
'0:22.016',-0.050,-0.320
'0:22.023',0.320,0.750
'0:22.031',0.560,3.630
'0:22.039',-0.610,5.110
'0:22.047',-1.930,5.110
'0:22.055',-1.860,1.860
'0:22.063',-1.270,-0.650
'0:22.070',-0.600,-0.440
'0:22.078',-0.250,-0.260
'0:22.086',-0.050,-0.290
'0:22.094',-0.040,-0.330
'0:22.102',0.000,-0.350
'0:22.109',0.000,-0.360
'0:22.117',0.040,-0.340
'0:22.125',0.040,-0.340
'0:22.133',0.060,-0.340
'0:22.141',0.050,-0.310
'0:22.148',0.080,-0.310
'0:22.156',0.100,-0.320
'0:22.164',0.100,-0.320
'0:22.172',0.090,-0.290
'0:22.180',0.110,-0.280
'0:22.188',0.130,-0.290
'0:22.195',0.130,-0.280
'0:22.203',0.150,-0.260
'0:22.211',0.160,-0.270
'0:22.219',0.180,-0.290
'0:22.227',0.190,-0.250
'0:22.234',0.200,-0.270
'0:22.242',0.200,-0.300
'0:22.250',0.200,-0.310
'0:22.258',0.180,-0.300
'0:22.266',0.170,-0.350
'0:22.273',0.140,-0.380
'0:22.281',0.110,-0.380
'0:22.289',0.090,-0.380
'0:22.297',0.040,-0.390
'0:22.305',0.020,-0.370
'0:22.313',-0.010,-0.270
'0:22.320',-0.030,-0.210
'0:22.328',-0.050,-0.160
'0:22.336',-0.030,-0.080
'0:22.344',-0.020,-0.040
'0:22.352',-0.010,-0.040
'0:22.359',-0.010,-0.050
'0:22.367',-0.010,-0.030
'0:22.375',-0.010,-0.030
'0:22.383',0.000,-0.060
'0:22.391',0.000,-0.070
'0:22.398',0.000,-0.060
'0:22.406',0.000,-0.090
'0:22.414',-0.010,-0.120
'0:22.422',0.000,-0.100
'0:22.430',0.010,-0.090
'0:22.438',0.020,-0.140
'0:22.445',0.010,-0.130
'0:22.453',0.030,-0.120
'0:22.461',0.030,-0.140
'0:22.469',0.020,-0.170
'0:22.477',0.020,-0.150
'0:22.484',0.030,-0.140
'0:22.492',0.020,-0.160
'0:22.500',0.020,-0.170
'0:22.508',0.020,-0.150
'0:22.516',0.020,-0.150
'0:22.523',0.010,-0.170
'0:22.531',-0.010,-0.150
'0:22.539',-0.010,-0.160
'0:22.547',0.000,-0.180
'0:22.555',0.000,-0.160
'0:22.563',-0.030,-0.160
'0:22.570',-0.010,-0.150
'0:22.578',-0.030,-0.180
'0:22.586',-0.040,-0.170
'0:22.594',-0.030,-0.150
'0:22.602',-0.040,-0.160
'0:22.609',-0.040,-0.180
'0:22.617',-0.060,-0.150
'0:22.625',-0.040,-0.160
'0:22.633',-0.050,-0.180
'0:22.641',-0.050,-0.180
'0:22.648',-0.050,-0.150
'0:22.656',-0.030,-0.160
'0:22.664',0.010,-0.140
'0:22.672',0.010,-0.100
'0:22.680',0.000,-0.060
'0:22.688',0.070,-0.060
'0:22.695',0.140,0.160
'0:22.703',0.120,0.220
'0:22.711',0.070,0.200
'0:22.719',0.040,0.140
'0:22.727',-0.060,0.050
'0:22.734',-0.120,0.040
'0:22.742',-0.120,-0.030
'0:22.750',-0.120,-0.160
'0:22.758',-0.120,-0.210
'0:22.766',-0.120,-0.250
'0:22.773',-0.140,-0.250
'0:22.781',-0.150,-0.240
'0:22.789',-0.150,-0.220
'0:22.797',-0.100,-0.300
'0:22.805',0.270,0.810
'0:22.813',0.510,3.570
'0:22.820',-0.280,5.110
'0:22.828',-1.830,5.110
'0:22.836',-1.720,1.890
'0:22.844',-1.260,-0.660
'0:22.852',-0.650,-0.490
'0:22.859',-0.310,-0.270
'0:22.867',-0.090,-0.340
'0:22.875',-0.080,-0.360
'0:22.883',-0.050,-0.390
'0:22.891',-0.030,-0.410
'0:22.898',-0.020,-0.380
'0:22.906',0.000,-0.360
'0:22.914',0.010,-0.390
'0:22.922',0.030,-0.360
'0:22.930',0.020,-0.360
'0:22.938',0.040,-0.360
'0:22.945',0.050,-0.360
'0:22.953',0.050,-0.330
'0:22.961',0.070,-0.310
'0:22.969',0.090,-0.320
'0:22.977',0.100,-0.310
'0:22.984',0.090,-0.300
'0:22.992',0.100,-0.320
'0:23.000',0.120,-0.310
'0:23.008',0.130,-0.280
'0:23.016',0.140,-0.320
'0:23.023',0.140,-0.340
'0:23.031',0.150,-0.320
'0:23.039',0.140,-0.320
'0:23.047',0.110,-0.360
'0:23.055',0.110,-0.380
'0:23.063',0.100,-0.410
'0:23.070',0.110,-0.400
'0:23.078',0.070,-0.430
'0:23.086',0.040,-0.400
'0:23.094',0.020,-0.310
'0:23.102',0.000,-0.250
'0:23.109',0.000,-0.220
'0:23.117',0.000,-0.160
'0:23.125',-0.030,-0.150
'0:23.133',-0.020,-0.170
'0:23.141',0.000,-0.180
'0:23.148',-0.020,-0.150
'0:23.156',0.000,-0.150
'0:23.164',0.000,-0.180
'0:23.172',-0.020,-0.180
'0:23.180',0.000,-0.180
'0:23.188',0.000,-0.210
'0:23.195',0.000,-0.230
'0:23.203',0.010,-0.200
'0:23.211',-0.010,-0.210
'0:23.219',0.020,-0.230
'0:23.227',0.010,-0.240
'0:23.234',0.010,-0.230
'0:23.242',0.000,-0.250
'0:23.250',0.010,-0.240
'0:23.258',0.010,-0.210
'0:23.266',0.000,-0.230
'0:23.273',0.010,-0.210
'0:23.281',-0.020,-0.230
'0:23.289',-0.020,-0.200
'0:23.297',-0.010,-0.240
'0:23.305',-0.030,-0.260
'0:23.313',-0.030,-0.220
'0:23.320',-0.040,-0.230
'0:23.328',-0.030,-0.250
'0:23.336',-0.050,-0.260
'0:23.344',-0.060,-0.230
'0:23.352',-0.050,-0.250
'0:23.359',-0.050,-0.300
'0:23.367',-0.090,-0.260
'0:23.375',-0.060,-0.250
'0:23.383',-0.070,-0.270
'0:23.391',-0.080,-0.300
'0:23.398',-0.070,-0.270
'0:23.406',-0.060,-0.240
'0:23.414',-0.030,-0.210
'0:23.422',-0.040,-0.170
'0:23.430',0.010,-0.140
'0:23.438',0.040,-0.030
'0:23.445',0.100,0.090
'0:23.453',0.070,0.090
'0:23.461',0.020,0.140
'0:23.469',-0.020,-0.010
'0:23.477',-0.130,-0.020
'0:23.484',-0.130,-0.080
'0:23.492',-0.130,-0.190
'0:23.500',-0.160,-0.330
'0:23.508',-0.170,-0.280
'0:23.516',-0.170,-0.300
'0:23.523',-0.160,-0.300
'0:23.531',-0.190,-0.300
'0:23.539',-0.170,-0.400
'0:23.547',0.140,0.620
'0:23.555',0.500,2.900
'0:23.563',0.250,5.110
'0:23.570',-1.550,5.110
'0:23.578',-1.600,2.850
'0:23.586',-1.330,-0.810
'0:23.594',-0.800,-0.600
'0:23.602',-0.510,-0.430
'0:23.609',-0.120,-0.410
'0:23.617',-0.130,-0.410
'0:23.625',-0.080,-0.440
'0:23.633',-0.070,-0.450
'0:23.641',-0.050,-0.440
'0:23.648',-0.030,-0.410
'0:23.656',-0.010,-0.420
'0:23.664',-0.010,-0.420
'0:23.672',0.010,-0.380
'0:23.680',0.030,-0.350
'0:23.688',0.030,-0.360
'0:23.695',0.050,-0.370
'0:23.703',0.070,-0.330
'0:23.711',0.080,-0.320
'0:23.719',0.100,-0.340
'0:23.727',0.140,-0.280
'0:23.734',0.140,-0.270
'0:23.742',0.170,-0.280
'0:23.750',0.190,-0.300
'0:23.758',0.210,-0.270
'0:23.766',0.230,-0.290
'0:23.773',0.240,-0.310
'0:23.781',0.240,-0.300
'0:23.789',0.240,-0.340
'0:23.797',0.220,-0.380
'0:23.805',0.210,-0.430
'0:23.813',0.180,-0.400
'0:23.820',0.150,-0.400
'0:23.828',0.110,-0.380
'0:23.836',0.090,-0.320
'0:23.844',0.070,-0.260
'0:23.852',0.040,-0.200
'0:23.859',0.030,-0.190
'0:23.867',0.010,-0.130
'0:23.875',0.020,-0.120
'0:23.883',0.020,-0.140
'0:23.891',0.030,-0.130
'0:23.898',0.020,-0.130
'0:23.906',0.030,-0.150
'0:23.914',0.020,-0.170
'0:23.922',0.030,-0.130
'0:23.930',0.060,-0.140
'0:23.938',0.070,-0.180
'0:23.945',0.050,-0.170
'0:23.953',0.070,-0.190
'0:23.961',0.070,-0.190
'0:23.969',0.070,-0.210
'0:23.977',0.060,-0.180
'0:23.984',0.060,-0.190
'0:23.992',0.070,-0.210
'0:24.000',0.040,-0.210
'0:24.008',0.050,-0.190
'0:24.016',0.020,-0.200
'0:24.023',0.020,-0.220
'0:24.031',0.010,-0.180
'0:24.039',0.020,-0.170
'0:24.047',0.010,-0.190
'0:24.055',0.000,-0.190
'0:24.063',-0.010,-0.180
'0:24.070',-0.010,-0.180
'0:24.078',-0.020,-0.210
'0:24.086',-0.030,-0.180
'0:24.094',-0.010,-0.200
'0:24.102',-0.020,-0.210
'0:24.109',-0.020,-0.210
'0:24.117',-0.030,-0.180
'0:24.125',-0.020,-0.190
'0:24.133',-0.040,-0.210
'0:24.141',-0.030,-0.210
'0:24.148',-0.030,-0.200
'0:24.156',-0.020,-0.210
'0:24.164',-0.030,-0.210
'0:24.172',-0.020,-0.140
'0:24.180',0.040,-0.100
'0:24.188',0.010,-0.110
'0:24.195',0.070,-0.060
'0:24.203',0.100,0.110
'0:24.211',0.150,0.240
'0:24.219',0.110,0.180
'0:24.227',0.020,0.250
'0:24.234',-0.010,0.130
'0:24.242',-0.090,0.080
'0:24.250',-0.110,0.060
'0:24.258',-0.110,-0.030
'0:24.266',-0.090,-0.180
'0:24.273',-0.100,-0.190
'0:24.281',-0.110,-0.170
'0:24.289',-0.090,-0.160
'0:24.297',-0.100,-0.180
'0:24.305',-0.070,-0.410
'0:24.313',0.310,0.440
'0:24.320',0.460,2.700
'0:24.328',0.190,5.110
'0:24.336',-1.980,5.110
'0:24.344',-2.140,3.220
'0:24.352',-1.280,-0.670
'0:24.359',-0.890,-0.430
'0:24.367',-0.320,-0.240
'0:24.375',-0.010,-0.260
'0:24.383',0.000,-0.330
'0:24.391',0.030,-0.320
'0:24.398',0.050,-0.300
'0:24.406',0.090,-0.330
'0:24.414',0.090,-0.340
'0:24.422',0.100,-0.310
'0:24.430',0.130,-0.300
'0:24.438',0.130,-0.310
'0:24.445',0.150,-0.300
'0:24.453',0.180,-0.280
'0:24.461',0.180,-0.280
'0:24.469',0.190,-0.300
'0:24.477',0.220,-0.260
'0:24.484',0.230,-0.250
'0:24.492',0.260,-0.270
'0:24.500',0.280,-0.260
'0:24.508',0.300,-0.250
'0:24.516',0.310,-0.270
'0:24.523',0.330,-0.290
'0:24.531',0.340,-0.270
'0:24.539',0.350,-0.280
'0:24.547',0.360,-0.320
'0:24.555',0.330,-0.340
'0:24.563',0.320,-0.350
'0:24.570',0.290,-0.400
'0:24.578',0.250,-0.430
'0:24.586',0.200,-0.370
'0:24.594',0.150,-0.340
'0:24.602',0.100,-0.280
'0:24.609',0.080,-0.210
'0:24.617',0.060,-0.130
'0:24.625',0.060,-0.070
'0:24.633',0.040,-0.050
'0:24.641',0.050,0.000
'0:24.648',0.070,0.000
'0:24.656',0.060,-0.010
'0:24.664',0.070,-0.040
'0:24.672',0.060,0.000
'0:24.680',0.050,-0.020
'0:24.688',0.050,-0.030
'0:24.695',0.060,-0.020
'0:24.703',0.050,-0.020
'0:24.711',0.070,-0.030
'0:24.719',0.060,-0.070
'0:24.727',0.060,-0.040
'0:24.734',0.070,-0.060
'0:24.742',0.080,-0.080
'0:24.750',0.070,-0.090
'0:24.758',0.080,-0.080
'0:24.766',0.100,-0.110
'0:24.773',0.080,-0.130
'0:24.781',0.100,-0.100
'0:24.789',0.090,-0.110
'0:24.797',0.100,-0.150
'0:24.805',0.090,-0.130
'0:24.813',0.100,-0.120
'0:24.820',0.080,-0.150
'0:24.828',0.080,-0.150
'0:24.836',0.060,-0.130
'0:24.844',0.040,-0.120
'0:24.852',0.060,-0.140
'0:24.859',0.040,-0.160
'0:24.867',0.040,-0.120
'0:24.875',0.040,-0.150
'0:24.883',0.020,-0.160
'0:24.891',0.010,-0.130
'0:24.898',0.020,-0.130
'0:24.906',0.010,-0.140
'0:24.914',0.010,-0.150
'0:24.922',0.010,-0.130
'0:24.930',0.040,-0.120
'0:24.938',0.070,-0.090
'0:24.945',0.050,-0.060
'0:24.953',0.110,-0.020
'0:24.961',0.140,0.130
'0:24.969',0.200,0.270
'0:24.977',0.150,0.260
'0:24.984',0.080,0.270
'0:24.992',0.020,0.120
'0:25.000',-0.080,0.100
'0:25.008',-0.080,0.100
'0:25.016',-0.070,-0.030
'0:25.023',-0.070,-0.160
'0:25.031',-0.060,-0.150
'0:25.039',-0.070,-0.160
'0:25.047',-0.080,-0.170
'0:25.055',-0.070,-0.130
'0:25.063',-0.030,-0.320
'0:25.070',0.280,0.420
'0:25.078',0.490,2.660
'0:25.086',0.390,5.110
'0:25.094',-1.880,5.110
'0:25.102',-2.030,3.270
'0:25.109',-1.200,-0.640
'0:25.117',-0.890,-0.370
'0:25.125',-0.320,-0.240
'0:25.133',0.010,-0.270
'0:25.141',0.010,-0.300
'0:25.148',0.030,-0.310
'0:25.156',0.050,-0.340
'0:25.164',0.080,-0.320
'0:25.172',0.070,-0.310
'0:25.180',0.110,-0.310
'0:25.188',0.100,-0.330
'0:25.195',0.100,-0.300
'0:25.203',0.130,-0.290
'0:25.211',0.120,-0.290
'0:25.219',0.140,-0.300
'0:25.227',0.160,-0.260
'0:25.234',0.180,-0.280
'0:25.242',0.180,-0.290
'0:25.250',0.200,-0.250
'0:25.258',0.230,-0.250
'0:25.266',0.230,-0.270
'0:25.273',0.260,-0.270
'0:25.281',0.280,-0.260
'0:25.289',0.270,-0.280
'0:25.297',0.280,-0.300
'0:25.305',0.260,-0.300
'0:25.313',0.260,-0.320
'0:25.320',0.230,-0.370
'0:25.328',0.230,-0.390
'0:25.336',0.170,-0.380
'0:25.344',0.160,-0.360
'0:25.352',0.110,-0.340
'0:25.359',0.070,-0.240
'0:25.367',0.060,-0.170
'0:25.375',0.050,-0.120
'0:25.383',0.050,-0.090
'0:25.391',0.040,-0.030
'0:25.398',0.060,-0.030
'0:25.406',0.050,-0.060
'0:25.414',0.070,-0.030
'0:25.422',0.060,-0.040
'0:25.430',0.080,-0.050
'0:25.438',0.050,-0.080
'0:25.445',0.070,-0.030
'0:25.453',0.070,-0.060
'0:25.461',0.070,-0.080
'0:25.469',0.070,-0.080
'0:25.477',0.080,-0.080
'0:25.484',0.080,-0.110
'0:25.492',0.100,-0.120
'0:25.500',0.080,-0.100
'0:25.508',0.090,-0.110
'0:25.516',0.110,-0.140
'0:25.523',0.090,-0.140
'0:25.531',0.110,-0.130
'0:25.539',0.110,-0.150
'0:25.547',0.100,-0.180
'0:25.555',0.070,-0.160
'0:25.563',0.090,-0.160
'0:25.570',0.080,-0.190
'0:25.578',0.080,-0.170
'0:25.586',0.060,-0.180
'0:25.594',0.060,-0.200
'0:25.602',0.030,-0.230
'0:25.609',0.030,-0.200
'0:25.617',0.020,-0.220
'0:25.625',0.040,-0.230
'0:25.633',0.020,-0.220
'0:25.641',0.030,-0.200
'0:25.648',0.020,-0.220
'0:25.656',0.020,-0.250
'0:25.664',0.000,-0.210
'0:25.672',0.020,-0.220
'0:25.680',0.020,-0.220
'0:25.688',0.010,-0.210
'0:25.695',0.030,-0.210
'0:25.703',0.020,-0.210
'0:25.711',0.020,-0.230
'0:25.719',0.010,-0.180
'0:25.727',0.030,-0.140
'0:25.734',0.080,-0.090
'0:25.742',0.050,-0.090
'0:25.750',0.110,-0.030
'0:25.758',0.110,0.040
'0:25.766',0.210,0.220
'0:25.773',0.130,0.200
'0:25.781',0.070,0.220
'0:25.789',0.030,0.140
'0:25.797',-0.090,0.050
'0:25.805',-0.100,0.060
'0:25.813',-0.090,0.020
'0:25.820',-0.060,-0.150
'0:25.828',-0.060,-0.170
'0:25.836',-0.070,-0.160
'0:25.844',-0.060,-0.170
'0:25.852',-0.070,-0.150
'0:25.859',-0.060,-0.290
'0:25.867',0.200,0.300
'0:25.875',0.460,2.330
'0:25.883',0.680,5.110
'0:25.891',-1.710,5.110
'0:25.898',-1.950,3.590
'0:25.906',-1.220,-0.540
'0:25.914',-0.970,-0.360
'0:25.922',-0.390,-0.270
'0:25.930',-0.030,-0.270
'0:25.938',-0.060,-0.320
'0:25.945',-0.010,-0.330
'0:25.953',0.020,-0.360
'0:25.961',0.040,-0.360
'0:25.969',0.040,-0.340
'0:25.977',0.050,-0.340
'0:25.984',0.060,-0.330
'0:25.992',0.060,-0.290
'0:26.000',0.090,-0.280
'0:26.008',0.100,-0.310
'0:26.016',0.110,-0.310
'0:26.023',0.120,-0.260
'0:26.031',0.140,-0.290
'0:26.039',0.130,-0.280
'0:26.047',0.130,-0.270
'0:26.055',0.130,-0.290
'0:26.063',0.160,-0.270
'0:26.070',0.150,-0.310
'0:26.078',0.170,-0.260
'0:26.086',0.170,-0.310
'0:26.094',0.160,-0.320
'0:26.102',0.160,-0.330
'0:26.109',0.140,-0.370
'0:26.117',0.130,-0.410
'0:26.125',0.100,-0.440
'0:26.133',0.070,-0.460
'0:26.141',0.060,-0.420
'0:26.148',0.020,-0.410
'0:26.156',0.000,-0.330
'0:26.164',0.010,-0.250
'0:26.172',-0.020,-0.190
'0:26.180',-0.020,-0.160
'0:26.188',-0.020,-0.100
'0:26.195',0.000,-0.100
'0:26.203',0.010,-0.100
'0:26.211',0.030,-0.080
'0:26.219',0.030,-0.060
'0:26.227',0.010,-0.090
'0:26.234',0.010,-0.110
'0:26.242',0.010,-0.060
'0:26.250',0.010,-0.090
'0:26.258',0.020,-0.120
'0:26.266',0.010,-0.110
'0:26.273',0.010,-0.120
'0:26.281',0.030,-0.140
'0:26.289',0.030,-0.160
'0:26.297',0.030,-0.140
'0:26.305',0.060,-0.150
'0:26.313',0.050,-0.190
'0:26.320',0.040,-0.190
'0:26.328',0.030,-0.170
'0:26.336',0.030,-0.180
'0:26.344',0.020,-0.200
'0:26.352',0.030,-0.180
'0:26.359',0.030,-0.160
'0:26.367',0.010,-0.200
'0:26.375',0.010,-0.230
'0:26.383',0.000,-0.210
'0:26.391',-0.020,-0.210
'0:26.398',0.000,-0.240
'0:26.406',-0.020,-0.230
'0:26.414',-0.010,-0.220
'0:26.422',-0.010,-0.220
'0:26.430',-0.030,-0.250
'0:26.438',-0.040,-0.220
'0:26.445',-0.050,-0.230
'0:26.453',-0.060,-0.250
'0:26.461',-0.040,-0.270
'0:26.469',-0.050,-0.260
'0:26.477',-0.060,-0.250
'0:26.484',-0.060,-0.280
'0:26.492',-0.070,-0.230
'0:26.500',-0.020,-0.180
'0:26.508',0.020,-0.210
'0:26.516',-0.030,-0.140
'0:26.523',0.050,-0.080
'0:26.531',0.060,0.050
'0:26.539',0.130,0.100
'0:26.547',0.050,0.100
'0:26.555',0.010,0.130
'0:26.563',-0.030,0.000
'0:26.570',-0.140,-0.060
'0:26.578',-0.110,-0.060
'0:26.586',-0.120,-0.140
'0:26.594',-0.110,-0.290
'0:26.602',-0.120,-0.300
'0:26.609',-0.120,-0.290
'0:26.617',-0.120,-0.280
'0:26.625',-0.120,-0.310
'0:26.633',-0.120,-0.360
'0:26.641',0.200,0.740
'0:26.648',0.540,3.210
'0:26.656',0.330,5.110
'0:26.664',-1.560,5.110
'0:26.672',-1.590,2.100
'0:26.680',-1.220,-0.780
'0:26.688',-0.740,-0.610
'0:26.695',-0.440,-0.350
'0:26.703',-0.060,-0.400
'0:26.711',-0.070,-0.430
'0:26.719',-0.030,-0.420
'0:26.727',-0.010,-0.410
'0:26.734',0.010,-0.440
'0:26.742',0.020,-0.400
'0:26.750',0.040,-0.380
'0:26.758',0.050,-0.380
'0:26.766',0.060,-0.380
'0:26.773',0.060,-0.330
'0:26.781',0.080,-0.340
'0:26.789',0.080,-0.340
'0:26.797',0.100,-0.300
'0:26.805',0.100,-0.290
'0:26.813',0.140,-0.280
'0:26.820',0.140,-0.290
'0:26.828',0.150,-0.260
'0:26.836',0.180,-0.270
'0:26.844',0.190,-0.280
'0:26.852',0.190,-0.280
'0:26.859',0.220,-0.260
'0:26.867',0.220,-0.300
'0:26.875',0.210,-0.330
'0:26.883',0.200,-0.320
'0:26.891',0.190,-0.360
'0:26.898',0.170,-0.410
'0:26.906',0.130,-0.430
'0:26.914',0.100,-0.400
'0:26.922',0.080,-0.370
'0:26.930',0.040,-0.330
'0:26.938',0.010,-0.240
'0:26.945',0.010,-0.170
'0:26.953',0.000,-0.140
'0:26.961',-0.010,-0.120
'0:26.969',0.000,-0.080
'0:26.977',0.000,-0.080
'0:26.984',0.010,-0.110
'0:26.992',0.010,-0.090
'0:27.000',0.000,-0.080
'0:27.008',0.020,-0.120
'0:27.016',0.040,-0.140
'0:27.023',0.030,-0.100
'0:27.031',0.040,-0.110
'0:27.039',0.050,-0.140
'0:27.047',0.040,-0.140
'0:27.055',0.040,-0.140
'0:27.063',0.060,-0.160
'0:27.070',0.040,-0.170
'0:27.078',0.060,-0.130
'0:27.086',0.050,-0.140
'0:27.094',0.050,-0.150
'0:27.102',0.040,-0.150
'0:27.109',0.030,-0.130
'0:27.117',0.040,-0.130
'0:27.125',0.030,-0.160
'0:27.133',0.020,-0.130
'0:27.141',0.020,-0.120
'0:27.148',0.030,-0.140
'0:27.156',0.020,-0.150
'0:27.164',0.010,-0.120
'0:27.172',0.030,-0.140
'0:27.180',0.020,-0.150
'0:27.188',0.000,-0.120
'0:27.195',0.020,-0.130
'0:27.203',0.020,-0.160
'0:27.211',0.000,-0.160
'0:27.219',0.010,-0.140
'0:27.227',0.010,-0.150
'0:27.234',-0.010,-0.160
'0:27.242',-0.020,-0.150
'0:27.250',-0.020,-0.150
'0:27.258',-0.030,-0.160
'0:27.266',-0.020,-0.150
'0:27.273',0.020,-0.060
'0:27.281',0.030,-0.070
'0:27.289',0.030,-0.040
'0:27.297',0.080,0.000
'0:27.305',0.110,0.250
'0:27.313',0.120,0.230
'0:27.320',0.040,0.230
'0:27.328',-0.010,0.230
'0:27.336',-0.080,0.110
'0:27.344',-0.140,0.070
'0:27.352',-0.130,0.040
'0:27.359',-0.130,-0.080
'0:27.367',-0.100,-0.180
'0:27.375',-0.120,-0.200
'0:27.383',-0.120,-0.160
'0:27.391',-0.100,-0.160
'0:27.398',-0.120,-0.210
'0:27.406',-0.050,-0.290
'0:27.414',0.330,0.940
'0:27.422',0.530,3.950
'0:27.430',-0.450,5.110
'0:27.438',-2.000,5.110
'0:27.445',-2.010,1.470
'0:27.453',-1.270,-0.660
'0:27.461',-0.660,-0.460
'0:27.469',-0.260,-0.220
'0:27.477',-0.040,-0.310
'0:27.484',-0.030,-0.370
'0:27.492',-0.010,-0.370
'0:27.500',0.010,-0.350
'0:27.508',0.040,-0.380
'0:27.516',0.050,-0.370
'0:27.523',0.040,-0.350
'0:27.531',0.070,-0.330
'0:27.539',0.070,-0.340
'0:27.547',0.080,-0.340
'0:27.555',0.080,-0.300
'0:27.563',0.110,-0.310
'0:27.570',0.120,-0.320
'0:27.578',0.140,-0.280
'0:27.586',0.150,-0.270
'0:27.594',0.170,-0.290
'0:27.602',0.190,-0.300
'0:27.609',0.190,-0.270
'0:27.617',0.230,-0.280
'0:27.625',0.240,-0.310
'0:27.633',0.250,-0.300
'0:27.641',0.250,-0.320
'0:27.648',0.250,-0.370
'0:27.656',0.220,-0.410
'0:27.664',0.200,-0.420
'0:27.672',0.180,-0.450
'0:27.680',0.140,-0.470
'0:27.688',0.100,-0.450
'0:27.695',0.060,-0.380
'0:27.703',0.030,-0.330
'0:27.711',0.000,-0.270
'0:27.719',-0.010,-0.160
'0:27.727',-0.010,-0.110
'0:27.734',0.000,-0.110
'0:27.742',0.010,-0.090
'0:27.750',0.030,-0.080
'0:27.758',0.030,-0.090
'0:27.766',0.020,-0.110
'0:27.773',0.020,-0.100
'0:27.781',0.020,-0.100
'0:27.789',0.020,-0.120
'0:27.797',0.030,-0.120
'0:27.805',0.010,-0.100
'0:27.813',0.030,-0.140
'0:27.820',0.030,-0.150
'0:27.828',0.030,-0.130
'0:27.836',0.040,-0.130
'0:27.844',0.030,-0.170
'0:27.852',0.040,-0.180
'0:27.859',0.040,-0.170
'0:27.867',0.040,-0.180
'0:27.875',0.040,-0.210
'0:27.883',0.040,-0.170
'0:27.891',0.040,-0.170
'0:27.898',0.050,-0.200
'0:27.906',0.030,-0.220
'0:27.914',0.030,-0.190
'0:27.922',0.030,-0.190
'0:27.930',0.010,-0.210
'0:27.938',0.010,-0.180
'0:27.945',-0.010,-0.180
'0:27.953',0.000,-0.190
'0:27.961',-0.030,-0.210
'0:27.969',-0.030,-0.180
'0:27.977',-0.030,-0.180
'0:27.984',-0.030,-0.200
'0:27.992',-0.040,-0.200
'0:28.000',-0.030,-0.180
'0:28.008',-0.040,-0.200
'0:28.016',-0.040,-0.220
'0:28.023',-0.050,-0.180
'0:28.031',-0.010,-0.130
'0:28.039',0.030,-0.140
'0:28.047',0.010,-0.090
'0:28.055',0.070,-0.050
'0:28.063',0.070,0.040
'0:28.070',0.150,0.200
'0:28.078',0.070,0.170
'0:28.086',0.020,0.220
'0:28.094',-0.030,0.070
'0:28.102',-0.130,0.000
'0:28.109',-0.140,0.010
'0:28.117',-0.120,-0.060
'0:28.125',-0.100,-0.220
'0:28.133',-0.100,-0.230
'0:28.141',-0.120,-0.230
'0:28.148',-0.100,-0.220
'0:28.156',-0.120,-0.230
'0:28.164',-0.110,-0.400
'0:28.172',0.150,0.300
'0:28.180',0.410,2.350
'0:28.188',0.710,5.110
'0:28.195',-1.660,5.110
'0:28.203',-1.990,3.560
'0:28.211',-1.370,-0.610
'0:28.219',-1.160,-0.420
'0:28.227',-0.450,-0.320
'0:28.234',-0.080,-0.320
'0:28.242',-0.070,-0.370
'0:28.250',-0.050,-0.360
'0:28.258',-0.030,-0.390
'0:28.266',0.010,-0.400
'0:28.273',0.010,-0.360
'0:28.281',0.040,-0.350
'0:28.289',0.040,-0.360
'0:28.297',0.040,-0.350
'0:28.305',0.070,-0.330
'0:28.313',0.080,-0.340
'0:28.320',0.080,-0.340
'0:28.328',0.090,-0.310
'0:28.336',0.110,-0.290
'0:28.344',0.120,-0.290
'0:28.352',0.140,-0.300
'0:28.359',0.140,-0.290
'0:28.367',0.160,-0.310
'0:28.375',0.170,-0.320
'0:28.383',0.190,-0.290
'0:28.391',0.200,-0.300
'0:28.398',0.200,-0.320
'0:28.406',0.180,-0.360
'0:28.414',0.160,-0.350
'0:28.422',0.150,-0.410
'0:28.430',0.120,-0.440
'0:28.438',0.080,-0.440
'0:28.445',0.040,-0.420
'0:28.453',0.010,-0.410
'0:28.461',-0.010,-0.340
'0:28.469',-0.030,-0.260
'0:28.477',-0.040,-0.190
'0:28.484',-0.040,-0.160
'0:28.492',-0.050,-0.110
'0:28.500',-0.030,-0.090
'0:28.508',-0.020,-0.100
'0:28.516',-0.010,-0.110
'0:28.523',-0.040,-0.100
'0:28.531',-0.020,-0.090
'0:28.539',-0.030,-0.120
'0:28.547',-0.040,-0.100
'0:28.555',-0.040,-0.100
'0:28.563',-0.020,-0.140
'0:28.570',-0.020,-0.160
'0:28.578',-0.030,-0.130
'0:28.586',-0.030,-0.140
'0:28.594',-0.020,-0.170
'0:28.602',-0.010,-0.160
'0:28.609',-0.010,-0.140
'0:28.617',0.010,-0.180
'0:28.625',0.000,-0.180
'0:28.633',-0.010,-0.140
'0:28.641',0.000,-0.170
'0:28.648',-0.010,-0.170
'0:28.656',-0.020,-0.180
'0:28.664',-0.010,-0.150
'0:28.672',-0.020,-0.180
'0:28.680',-0.030,-0.180
'0:28.688',-0.030,-0.150
'0:28.695',-0.040,-0.160
'0:28.703',-0.040,-0.190
'0:28.711',-0.040,-0.200
'0:28.719',-0.040,-0.170
'0:28.727',-0.040,-0.170
'0:28.734',-0.040,-0.210
'0:28.742',-0.070,-0.180
'0:28.750',-0.060,-0.190
'0:28.758',-0.060,-0.210
'0:28.766',-0.050,-0.230
'0:28.773',-0.040,-0.190
'0:28.781',-0.050,-0.210
'0:28.789',-0.060,-0.220
'0:28.797',-0.050,-0.170
'0:28.805',0.020,-0.140
'0:28.813',-0.010,-0.140
'0:28.820',0.040,-0.100
'0:28.828',0.050,-0.010
'0:28.836',0.120,0.190
'0:28.844',0.100,0.090
'0:28.852',0.010,0.170
'0:28.859',-0.020,0.100
'0:28.867',-0.110,0.000
'0:28.875',-0.140,-0.050
'0:28.883',-0.150,-0.050
'0:28.891',-0.140,-0.220
'0:28.898',-0.130,-0.270
'0:28.906',-0.140,-0.290
'0:28.914',-0.170,-0.260
'0:28.922',-0.120,-0.250
'0:28.930',-0.130,-0.340
'0:28.938',-0.040,-0.030
'0:28.945',0.300,1.450
'0:28.953',0.580,4.660
'0:28.961',-0.580,5.110
'0:28.969',-1.710,4.730
'0:28.977',-1.510,0.300
'0:28.984',-1.220,-0.520
'0:28.992',-0.660,-0.500
'0:29.000',-0.290,-0.270
'0:29.008',-0.090,-0.380
'0:29.016',-0.090,-0.410
'0:29.023',-0.070,-0.370
'0:29.031',-0.050,-0.390
'0:29.039',-0.020,-0.400
'0:29.047',-0.030,-0.370
'0:29.055',-0.010,-0.340
'0:29.063',0.030,-0.350
'0:29.070',0.030,-0.360
'0:29.078',0.040,-0.330
'0:29.086',0.050,-0.360
'0:29.094',0.050,-0.300
'0:29.102',0.060,-0.320
'0:29.109',0.070,-0.310
'0:29.117',0.090,-0.310
'0:29.125',0.100,-0.300
'0:29.133',0.110,-0.270
'0:29.141',0.110,-0.250
'0:29.148',0.120,-0.310
'0:29.156',0.130,-0.280
'0:29.164',0.130,-0.250
'0:29.172',0.160,-0.280
'0:29.180',0.120,-0.270
'0:29.188',0.130,-0.280
'0:29.195',0.100,-0.290
'0:29.203',0.110,-0.360
'0:29.211',0.080,-0.340
'0:29.219',0.060,-0.290
'0:29.227',0.050,-0.260
'0:29.234',0.010,-0.250
'0:29.242',0.000,-0.190
'0:29.250',0.010,-0.120
'0:29.258',0.000,-0.140
'0:29.266',-0.030,-0.160
'0:29.273',-0.010,-0.090
'0:29.281',-0.010,-0.110
'0:29.289',0.010,-0.160
'0:29.297',0.020,-0.150
'0:29.305',0.020,-0.150
'0:29.313',0.030,-0.170
'0:29.320',0.040,-0.230
'0:29.328',0.000,-0.180
'0:29.336',0.110,0.090
'0:29.344',0.170,-0.060
'0:29.352',0.400,0.170
'0:29.359',0.670,1.340
'0:29.367',0.560,2.000
'0:29.375',-0.400,-0.100
'0:29.383',-1.100,-2.050
'0:29.391',-1.070,-3.180
'0:29.398',-0.870,-3.310
'0:29.406',-0.150,-3.100
'0:29.414',1.070,-2.480
'0:29.422',2.590,-1.820
'0:29.430',2.560,-1.960
'0:29.438',1.540,-1.830
'0:29.445',0.720,-1.590
'0:29.453',-0.200,-1.090
'0:29.461',0.020,-0.620
'0:29.469',-0.260,-0.060
'0:29.477',-0.100,0.380
'0:29.484',-0.080,0.470
'0:29.492',-0.090,0.610
'0:29.500',-0.120,0.730
'0:29.508',-0.130,0.810
'0:29.516',-0.140,0.940
'0:29.523',-0.140,1.070
'0:29.531',-0.160,1.210
'0:29.539',-0.190,1.310
'0:29.547',-0.180,1.460
'0:29.555',-0.170,1.680
'0:29.563',-0.170,1.860
'0:29.570',-0.230,2.130
'0:29.578',-0.180,2.450
'0:29.586',-0.220,2.920
'0:29.594',-0.170,3.320
'0:29.602',-0.270,3.610
'0:29.609',-0.300,3.900
'0:29.617',-0.330,4.070
'0:29.625',-0.340,4.140
'0:29.633',-0.350,4.150
'0:29.641',-0.240,3.940
'0:29.648',-0.180,3.410
'0:29.656',-0.070,2.900
'0:29.664',-0.040,2.300
'0:29.672',0.040,1.680
'0:29.680',0.080,1.070
'0:29.688',0.110,0.580
'0:29.695',0.090,0.260
'0:29.703',0.080,0.030
'0:29.711',0.050,-0.130
'0:29.719',0.020,-0.200
'0:29.727',0.000,-0.240
'0:29.734',-0.010,-0.280
'0:29.742',-0.010,-0.300
'0:29.750',-0.020,-0.290
'0:29.758',-0.010,-0.300
'0:29.766',-0.010,-0.330
'0:29.773',-0.020,-0.300
'0:29.781',-0.020,-0.300
'0:29.789',-0.010,-0.300
'0:29.797',0.000,-0.300
'0:29.805',-0.020,-0.230
'0:29.813',-0.010,-0.230
'0:29.820',0.090,0.300
'0:29.828',0.410,2.480
'0:29.836',0.690,5.110
'0:29.844',-0.450,5.110
'0:29.852',-1.900,4.270
'0:29.859',-1.470,-0.420
'0:29.867',-1.120,-0.460
'0:29.875',-0.390,-0.420
'0:29.883',-0.050,-0.330
'0:29.891',0.030,-0.370
'0:29.898',0.030,-0.390
'0:29.906',0.040,-0.410
'0:29.914',0.040,-0.390
'0:29.922',0.040,-0.390
'0:29.930',0.050,-0.390
'0:29.938',0.070,-0.400
'0:29.945',0.050,-0.360
'0:29.953',0.080,-0.370
'0:29.961',0.080,-0.380
'0:29.969',0.080,-0.370
'0:29.977',0.090,-0.370
'0:29.984',0.110,-0.390
'0:29.992',0.120,-0.410
'0:30.000',0.130,-0.410
'0:30.008',0.140,-0.450
'0:30.016',0.160,-0.500
'0:30.023',0.160,-0.530
'0:30.031',0.180,-0.580
'0:30.039',0.170,-0.660
'0:30.047',0.170,-0.750
'0:30.055',0.150,-0.790
'0:30.063',0.150,-0.850
'0:30.070',0.130,-0.910
'0:30.078',0.120,-0.900
'0:30.086',0.080,-0.830
'0:30.094',0.080,-0.700
'0:30.102',0.060,-0.600
'0:30.109',0.030,-0.440
'0:30.117',0.040,-0.350
'0:30.125',0.030,-0.310
'0:30.133',0.030,-0.280
'0:30.141',0.030,-0.250
'0:30.148',0.040,-0.250
'0:30.156',0.050,-0.270
'0:30.164',0.050,-0.240
'0:30.172',0.060,-0.250
'0:30.180',0.050,-0.270
'0:30.188',0.060,-0.280
'0:30.195',0.060,-0.270
'0:30.203',0.070,-0.270
'0:30.211',0.080,-0.290
'0:30.219',0.080,-0.250
'0:30.227',0.060,-0.260
'0:30.234',0.070,-0.280
'0:30.242',0.060,-0.300
'0:30.250',0.050,-0.270
'0:30.258',0.050,-0.280
'0:30.266',0.050,-0.310
'0:30.273',0.020,-0.300
'0:30.281',0.030,-0.290
'0:30.289',0.030,-0.300
'0:30.297',0.060,-0.260
'0:30.305',0.070,-0.230
'0:30.313',0.050,-0.190
'0:30.320',0.130,-0.170
'0:30.328',0.130,-0.010
'0:30.336',0.210,0.110
'0:30.344',0.100,0.060
'0:30.352',0.060,0.050
'0:30.359',0.010,-0.060
'0:30.367',-0.090,-0.090
'0:30.375',-0.110,-0.110
'0:30.383',-0.090,-0.200
'0:30.391',-0.090,-0.330
'0:30.398',-0.070,-0.370
'0:30.406',-0.100,-0.380
'0:30.414',-0.090,-0.340
'0:30.422',-0.080,-0.350
'0:30.430',-0.080,-0.700
'0:30.438',0.190,-0.120
'0:30.445',0.470,1.760
'0:30.453',0.770,4.960
'0:30.461',-1.540,5.110
'0:30.469',-1.910,3.590
'0:30.477',-1.320,-0.570
'0:30.484',-1.050,-0.560
'0:30.492',-0.440,-0.440
'0:30.500',-0.030,-0.420
'0:30.508',-0.020,-0.480
'0:30.516',0.020,-0.520
'0:30.523',0.030,-0.490
'0:30.531',0.050,-0.500
'0:30.539',0.070,-0.510
'0:30.547',0.080,-0.510
'0:30.555',0.100,-0.480
'0:30.563',0.110,-0.500
'0:30.570',0.110,-0.520
'0:30.578',0.120,-0.480
'0:30.586',0.150,-0.470
'0:30.594',0.160,-0.500
'0:30.602',0.160,-0.490
'0:30.609',0.180,-0.470
'0:30.617',0.210,-0.490
'0:30.625',0.220,-0.520
'0:30.633',0.220,-0.500
'0:30.641',0.240,-0.550
'0:30.648',0.250,-0.580
'0:30.656',0.260,-0.630
'0:30.664',0.250,-0.650
'0:30.672',0.280,-0.710
'0:30.680',0.250,-0.780
'0:30.688',0.240,-0.810
'0:30.695',0.230,-0.830
'0:30.703',0.200,-0.840
'0:30.711',0.140,-0.790
'0:30.719',0.090,-0.680
'0:30.727',0.080,-0.570
'0:30.734',0.040,-0.460
'0:30.742',0.030,-0.360
'0:30.750',0.020,-0.280
'0:30.758',0.010,-0.250
'0:30.766',0.020,-0.240
'0:30.773',0.020,-0.180
'0:30.781',0.040,-0.190
'0:30.789',0.020,-0.200
'0:30.797',0.010,-0.190
'0:30.805',0.040,-0.170
'0:30.813',0.030,-0.190
'0:30.820',0.030,-0.220
'0:30.828',0.040,-0.180
'0:30.836',0.060,-0.180
'0:30.844',0.060,-0.200
'0:30.852',0.070,-0.210
'0:30.859',0.070,-0.200
'0:30.867',0.080,-0.150
'0:30.875',0.070,-0.080
'0:30.883',0.030,-0.090
'0:30.891',-0.100,0.060
'0:30.898',0.070,0.230
'0:30.906',0.140,1.470
'0:30.914',0.120,1.590
'0:30.922',-0.020,-0.200
'0:30.930',-0.120,-2.670
'0:30.938',0.790,-3.260
'0:30.945',2.390,-3.260
'0:30.953',2.540,-2.950
'0:30.961',2.370,-2.110
'0:30.969',2.890,-1.800
'0:30.977',2.740,-1.630
'0:30.984',3.420,-1.920
'0:30.992',2.900,-1.750
'0:31.000',2.070,-1.610
'0:31.008',0.620,-1.060
'0:31.016',0.270,-0.670
'0:31.023',0.100,-0.010
'0:31.031',-0.120,0.370
'0:31.039',-0.140,0.540
'0:31.047',-0.160,0.760
'0:31.055',-0.240,0.910
'0:31.063',-0.230,1.060
'0:31.070',-0.280,1.340
'0:31.078',-0.210,1.690
'0:31.086',-0.320,1.750
'0:31.094',-0.390,1.940
'0:31.102',-0.500,2.020
'0:31.109',-0.610,2.130
'0:31.117',-0.700,2.270
'0:31.125',-0.770,2.430
'0:31.133',-0.810,2.540
'0:31.141',-0.880,2.730
'0:31.148',-0.950,3.010
'0:31.156',-1.040,3.310
'0:31.164',-1.100,3.590
'0:31.172',-1.140,3.730
'0:31.180',-1.130,3.740
'0:31.188',-1.100,3.590
'0:31.195',-1.000,3.270
'0:31.203',-0.890,2.740
'0:31.211',-0.730,2.220
'0:31.219',-0.570,1.640
'0:31.227',-0.410,1.090
'0:31.234',-0.250,0.630
'0:31.242',-0.150,0.310
'0:31.250',-0.070,0.080
'0:31.258',-0.040,-0.110
'0:31.266',0.000,-0.210
'0:31.273',0.000,-0.240
'0:31.281',0.020,-0.280
'0:31.289',0.000,-0.310
'0:31.297',-0.010,-0.310
'0:31.305',0.010,-0.310
'0:31.313',0.010,-0.330
'0:31.320',0.020,-0.360
'0:31.328',0.010,-0.330
'0:31.336',0.020,-0.330
'0:31.344',0.010,-0.370
'0:31.352',0.020,-0.360
'0:31.359',0.010,-0.370
'0:31.367',0.030,-0.390
'0:31.375',0.010,-0.410
'0:31.383',0.010,-0.380
'0:31.391',0.000,-0.400
'0:31.398',0.000,-0.430
'0:31.406',0.000,-0.430
'0:31.414',-0.010,-0.420
'0:31.422',-0.020,-0.440
'0:31.430',-0.020,-0.450
'0:31.438',-0.020,-0.410
'0:31.445',-0.020,-0.420
'0:31.453',-0.020,-0.440
'0:31.461',-0.030,-0.460
'0:31.469',-0.020,-0.420
'0:31.477',-0.030,-0.430
'0:31.484',-0.030,-0.440
'0:31.492',-0.030,-0.430
'0:31.500',-0.030,-0.420
'0:31.508',-0.020,-0.430
'0:31.516',-0.030,-0.450
'0:31.523',-0.040,-0.420
'0:31.531',-0.030,-0.400
'0:31.539',-0.030,-0.420
'0:31.547',-0.030,-0.420
'0:31.555',-0.030,-0.380
'0:31.563',-0.030,-0.420
'0:31.570',-0.030,-0.440
'0:31.578',-0.030,-0.410
'0:31.586',-0.030,-0.390
'0:31.594',-0.040,-0.410
'0:31.602',-0.030,-0.400
'0:31.609',-0.040,-0.380
'0:31.617',-0.040,-0.380
'0:31.625',-0.040,-0.400
'0:31.633',-0.060,-0.370
'0:31.641',-0.060,-0.370
'0:31.648',-0.050,-0.400
'0:31.656',-0.060,-0.420
'0:31.664',-0.060,-0.390
'0:31.672',-0.040,-0.390
'0:31.680',-0.060,-0.410
'0:31.688',-0.060,-0.370
'0:31.695',-0.070,-0.360
'0:31.703',-0.050,-0.400
'0:31.711',-0.050,-0.390
'0:31.719',-0.060,-0.360
'0:31.727',-0.050,-0.360
'0:31.734',-0.060,-0.380
'0:31.742',-0.060,-0.350
'0:31.750',-0.070,-0.350
'0:31.758',-0.060,-0.360
'0:31.766',-0.060,-0.380
'0:31.773',-0.070,-0.350
'0:31.781',-0.070,-0.360
'0:31.789',-0.060,-0.370
'0:31.797',-0.060,-0.370
'0:31.805',-0.060,-0.350
'0:31.813',-0.050,-0.350
'0:31.820',-0.030,-0.330
'0:31.828',0.010,-0.260
'0:31.836',-0.010,-0.240
'0:31.844',0.050,-0.220
'0:31.852',0.120,-0.010
'0:31.859',0.110,0.050
'0:31.867',0.100,0.050
'0:31.875',0.030,-0.020
'0:31.883',-0.050,-0.090
'0:31.891',-0.080,-0.100
'0:31.898',-0.110,-0.160
'0:31.906',-0.080,-0.320
'0:31.914',-0.090,-0.360
'0:31.922',-0.090,-0.380
'0:31.930',-0.100,-0.380
'0:31.938',-0.090,-0.340
'0:31.945',-0.090,-0.540
'0:31.953',0.010,-0.200
'0:31.961',0.350,1.290
'0:31.969',0.760,4.620
'0:31.977',-1.010,5.110
'0:31.984',-1.720,4.150
'0:31.992',-1.410,-0.150
'0:32.000',-1.140,-0.450
'0:32.008',-0.500,-0.500
'0:32.016',-0.150,-0.420
'0:32.023',-0.080,-0.500
'0:32.031',-0.040,-0.550
'0:32.039',-0.030,-0.570
'0:32.047',0.000,-0.580
'0:32.055',0.030,-0.540
'0:32.063',0.050,-0.550
'0:32.070',0.070,-0.580
'0:32.078',0.070,-0.540
'0:32.086',0.060,-0.530
'0:32.094',0.090,-0.550
'0:32.102',0.110,-0.540
'0:32.109',0.110,-0.530
'0:32.117',0.130,-0.520
'0:32.125',0.150,-0.530
'0:32.133',0.140,-0.510
'0:32.141',0.150,-0.520
'0:32.148',0.170,-0.540
'0:32.156',0.170,-0.590
'0:32.164',0.190,-0.580
'0:32.172',0.210,-0.600
'0:32.180',0.240,-0.690
'0:32.188',0.260,-0.710
'0:32.195',0.280,-0.760
'0:32.203',0.300,-0.870
'0:32.211',0.320,-0.960
'0:32.219',0.340,-1.000
'0:32.227',0.350,-1.060
'0:32.234',0.330,-1.090
'0:32.242',0.270,-1.070
'0:32.250',0.170,-1.000
'0:32.258',0.130,-0.920
'0:32.266',0.050,-0.790
'0:32.273',0.030,-0.620
'0:32.281',0.010,-0.530
'0:32.289',0.000,-0.420
'0:32.297',-0.010,-0.350
'0:32.305',0.010,-0.280
'0:32.313',0.030,-0.270
'0:32.320',0.030,-0.270
'0:32.328',0.020,-0.240
'0:32.336',0.030,-0.230
'0:32.344',0.020,-0.260
'0:32.352',0.020,-0.250
'0:32.359',0.030,-0.230
'0:32.367',0.040,-0.210
'0:32.375',0.060,-0.260
'0:32.383',0.050,-0.250
'0:32.391',0.060,-0.200
'0:32.398',0.080,-0.210
'0:32.406',-0.040,-0.050
'0:32.414',0.050,0.010
'0:32.422',0.080,0.180
'0:32.430',0.080,1.620
'0:32.438',-0.020,2.640
'0:32.445',-0.200,1.180
'0:32.453',-0.100,-1.780
'0:32.461',1.170,-3.150
'0:32.469',1.940,-3.030
'0:32.477',2.380,-2.460
'0:32.484',2.220,-1.870
'0:32.492',2.460,-1.370
'0:32.500',2.580,-1.390
'0:32.508',3.310,-1.820
'0:32.516',2.530,-1.780
'0:32.523',1.400,-1.370
'0:32.531',0.300,-0.960
'0:32.539',0.210,-0.370
'0:32.547',-0.110,0.050
'0:32.555',-0.170,0.310
'0:32.563',-0.150,0.420
'0:32.570',-0.200,0.750
'0:32.578',-0.200,0.940
'0:32.586',-0.290,1.080
'0:32.594',-0.340,1.130
'0:32.602',-0.420,1.140
'0:32.609',-0.540,1.200
'0:32.617',-0.630,1.230
'0:32.625',-0.660,1.200
'0:32.633',-0.710,1.170
'0:32.641',-0.780,1.290
'0:32.648',-0.870,1.360
'0:32.656',-0.940,1.590
'0:32.664',-1.050,1.820
'0:32.672',-1.110,2.060
'0:32.680',-1.180,2.280
'0:32.688',-1.280,2.550
'0:32.695',-1.310,2.770
'0:32.703',-1.330,2.830
'0:32.711',-1.250,2.750
'0:32.719',-1.170,2.520
'0:32.727',-1.030,2.160
'0:32.734',-0.880,1.660
'0:32.742',-0.690,1.120
'0:32.750',-0.510,0.690
'0:32.758',-0.380,0.260
'0:32.766',-0.230,0.000
'0:32.773',-0.170,-0.150
'0:32.781',-0.100,-0.290
'0:32.789',-0.080,-0.370
'0:32.797',-0.090,-0.410
'0:32.805',-0.070,-0.410
'0:32.813',-0.070,-0.440
'0:32.820',-0.070,-0.430
'0:32.828',-0.070,-0.420
'0:32.836',-0.070,-0.420
'0:32.844',-0.060,-0.440
'0:32.852',-0.080,-0.440
'0:32.859',-0.070,-0.440
'0:32.867',-0.080,-0.460
'0:32.875',-0.070,-0.480
'0:32.883',-0.070,-0.450
'0:32.891',-0.060,-0.460
'0:32.898',-0.060,-0.500
'0:32.906',-0.060,-0.510
'0:32.914',-0.070,-0.480
'0:32.922',-0.050,-0.500
'0:32.930',-0.070,-0.520
'0:32.938',-0.070,-0.480
'0:32.945',-0.060,-0.500
'0:32.953',-0.070,-0.510
'0:32.961',-0.070,-0.510
'0:32.969',-0.070,-0.490
'0:32.977',-0.060,-0.500
'0:32.984',-0.070,-0.530
'0:32.992',-0.070,-0.500
'0:33.000',-0.060,-0.500
'0:33.008',-0.070,-0.520
'0:33.016',-0.070,-0.530
'0:33.023',-0.070,-0.490
'0:33.031',-0.060,-0.510
'0:33.039',-0.070,-0.510
'0:33.047',-0.070,-0.500
'0:33.055',-0.070,-0.480
'0:33.063',-0.050,-0.490
'0:33.070',-0.070,-0.500
'0:33.078',-0.060,-0.460
'0:33.086',-0.070,-0.470
'0:33.094',-0.060,-0.480
'0:33.102',-0.060,-0.470
'0:33.109',-0.060,-0.460
'0:33.117',-0.050,-0.480
'0:33.125',-0.070,-0.490
'0:33.133',-0.080,-0.450
'0:33.141',-0.060,-0.460
'0:33.148',-0.060,-0.470
'0:33.156',-0.060,-0.460
'0:33.164',-0.060,-0.440
'0:33.172',-0.050,-0.460
'0:33.180',-0.060,-0.470
'0:33.188',-0.050,-0.440
'0:33.195',-0.030,-0.440
'0:33.203',-0.050,-0.450
'0:33.211',-0.060,-0.440
'0:33.219',-0.060,-0.420
'0:33.227',-0.070,-0.430
'0:33.234',-0.060,-0.440
'0:33.242',-0.070,-0.400
'0:33.250',-0.060,-0.400
'0:33.258',-0.060,-0.410
'0:33.266',-0.060,-0.420
'0:33.273',-0.070,-0.380
'0:33.281',-0.040,-0.380
'0:33.289',-0.010,-0.330
'0:33.297',0.020,-0.290
'0:33.305',0.030,-0.270
'0:33.313',0.060,-0.160
'0:33.320',0.160,0.000
'0:33.328',0.110,0.000
'0:33.336',0.090,0.040
'0:33.344',0.040,-0.090
'0:33.352',-0.060,-0.100
'0:33.359',-0.070,-0.140
'0:33.367',-0.090,-0.230
'0:33.375',-0.070,-0.380
'0:33.383',-0.070,-0.360
'0:33.391',-0.070,-0.370
'0:33.398',-0.080,-0.380
'0:33.406',-0.100,-0.370
'0:33.414',-0.080,-0.640
'0:33.422',0.210,0.200
'0:33.430',0.460,2.790
'0:33.438',0.520,5.110
'0:33.445',-1.670,5.110
'0:33.453',-1.830,2.640
'0:33.461',-1.180,-0.780
'0:33.469',-0.840,-0.520
'0:33.477',-0.380,-0.340
'0:33.484',-0.020,-0.470
'0:33.492',-0.050,-0.470
'0:33.500',0.000,-0.500
'0:33.508',0.030,-0.540
'0:33.516',0.040,-0.520
'0:33.523',0.050,-0.510
'0:33.531',0.070,-0.530
'0:33.539',0.080,-0.530
'0:33.547',0.080,-0.500
'0:33.555',0.110,-0.490
'0:33.563',0.120,-0.510
'0:33.570',0.130,-0.480
'0:33.578',0.150,-0.460
'0:33.586',0.170,-0.470
'0:33.594',0.190,-0.480
'0:33.602',0.200,-0.450
'0:33.609',0.250,-0.470
'0:33.617',0.260,-0.490
'0:33.625',0.280,-0.510
'0:33.633',0.320,-0.530
'0:33.641',0.350,-0.580
'0:33.648',0.390,-0.650
'0:33.656',0.410,-0.680
'0:33.664',0.430,-0.760
'0:33.672',0.440,-0.840
'0:33.680',0.450,-0.940
'0:33.688',0.440,-0.980
'0:33.695',0.410,-1.030
'0:33.703',0.350,-1.030
'0:33.711',0.250,-0.940
'0:33.719',0.160,-0.840
'0:33.727',0.120,-0.720
'0:33.734',0.060,-0.590
'0:33.742',0.040,-0.440
'0:33.750',0.020,-0.340
'0:33.758',0.030,-0.280
'0:33.766',0.030,-0.200
'0:33.773',0.040,-0.150
'0:33.781',0.040,-0.160
'0:33.789',0.030,-0.160
'0:33.797',0.050,-0.120
'0:33.805',0.040,-0.120
'0:33.813',0.050,-0.160
'0:33.820',0.040,-0.140
'0:33.828',0.040,-0.150
'0:33.836',0.050,-0.180
'0:33.844',0.050,-0.190
'0:33.852',0.040,-0.180
'0:33.859',0.060,-0.180
'0:33.867',0.060,-0.220
'0:33.875',0.050,-0.200
'0:33.883',0.050,-0.210
'0:33.891',0.040,-0.220
'0:33.898',0.050,-0.250
'0:33.906',0.040,-0.210
'0:33.914',0.040,-0.240
'0:33.922',0.030,-0.260
'0:33.930',0.020,-0.260
'0:33.938',0.010,-0.250
'0:33.945',0.010,-0.260
'0:33.953',0.000,-0.270
'0:33.961',0.000,-0.240
'0:33.969',0.000,-0.240
'0:33.977',-0.010,-0.260
'0:33.984',-0.010,-0.260
'0:33.992',-0.030,-0.210
'0:34.000',-0.010,-0.200
'0:34.008',0.040,-0.160
'0:34.016',0.000,-0.130
'0:34.023',0.060,-0.110
'0:34.031',0.080,0.070
'0:34.039',0.160,0.190
'0:34.047',0.110,0.170
'0:34.055',0.060,0.180
'0:34.063',0.010,0.030
'0:34.070',-0.090,0.030
'0:34.078',-0.090,-0.020
'0:34.086',-0.090,-0.140
'0:34.094',-0.090,-0.270
'0:34.102',-0.080,-0.250
'0:34.109',-0.090,-0.250
'0:34.117',-0.090,-0.260
'0:34.125',-0.100,-0.240
'0:34.133',-0.090,-0.480
'0:34.141',0.190,0.270
'0:34.148',0.500,2.350
'0:34.156',0.780,5.110
'0:34.164',-1.560,5.110
'0:34.172',-1.890,3.150
'0:34.180',-1.270,-0.720
'0:34.188',-1.070,-0.460
'0:34.195',-0.440,-0.330
'0:34.203',-0.060,-0.350
'0:34.211',-0.050,-0.390
'0:34.219',-0.030,-0.390
'0:34.227',0.000,-0.410
'0:34.234',0.020,-0.420
'0:34.242',0.000,-0.370
'0:34.250',0.040,-0.380
'0:34.258',0.030,-0.380
'0:34.266',0.050,-0.360
'0:34.273',0.060,-0.350
'0:34.281',0.080,-0.350
'0:34.289',0.080,-0.370
'0:34.297',0.090,-0.320
'0:34.305',0.120,-0.310
'0:34.313',0.130,-0.310
'0:34.320',0.140,-0.300
'0:34.328',0.160,-0.290
'0:34.336',0.180,-0.310
'0:34.344',0.180,-0.330
'0:34.352',0.200,-0.300
'0:34.359',0.200,-0.310
'0:34.367',0.210,-0.350
'0:34.375',0.210,-0.380
'0:34.383',0.200,-0.410
'0:34.391',0.200,-0.480
'0:34.398',0.180,-0.500
'0:34.406',0.160,-0.490
'0:34.414',0.120,-0.470
'0:34.422',0.090,-0.430
'0:34.430',0.070,-0.350
'0:34.438',0.040,-0.250
'0:34.445',0.020,-0.170
'0:34.453',0.030,-0.140
'0:34.461',0.010,-0.080
'0:34.469',0.030,-0.060
'0:34.477',0.020,-0.080
'0:34.484',0.050,-0.100
'0:34.492',0.020,-0.070
'0:34.500',0.040,-0.090
'0:34.508',0.040,-0.100
'0:34.516',0.030,-0.090
'0:34.523',0.030,-0.100
'0:34.531',0.040,-0.120
'0:34.539',0.040,-0.150
'0:34.547',0.040,-0.110
'0:34.555',0.040,-0.120
'0:34.563',0.040,-0.140
'0:34.570',0.060,-0.140
'0:34.578',0.050,-0.140
'0:34.586',0.050,-0.150
'0:34.594',0.050,-0.180
'0:34.602',0.040,-0.160
'0:34.609',0.040,-0.150
'0:34.617',0.050,-0.180
'0:34.625',0.030,-0.200
'0:34.633',0.030,-0.160
'0:34.641',0.030,-0.190
'0:34.648',0.030,-0.200
'0:34.656',0.000,-0.180
'0:34.664',0.010,-0.180
'0:34.672',0.000,-0.200
'0:34.680',0.000,-0.210
'0:34.688',-0.010,-0.180
'0:34.695',-0.010,-0.190
'0:34.703',-0.010,-0.210
'0:34.711',-0.010,-0.180
'0:34.719',-0.020,-0.180
'0:34.727',-0.030,-0.200
'0:34.734',-0.020,-0.210
'0:34.742',-0.010,-0.140
'0:34.750',0.040,-0.100
'0:34.758',0.030,-0.120
'0:34.766',0.050,-0.070
'0:34.773',0.070,0.050
'0:34.781',0.180,0.220
'0:34.789',0.130,0.160
'0:34.797',0.060,0.230
'0:34.805',0.030,0.100
'0:34.813',-0.080,0.030
'0:34.820',-0.100,0.020
'0:34.828',-0.110,-0.070
'0:34.836',-0.070,-0.210
'0:34.844',-0.070,-0.250
'0:34.852',-0.090,-0.200
'0:34.859',-0.100,-0.200
'0:34.867',-0.080,-0.190
'0:34.875',-0.070,-0.370
'0:34.883',0.090,0.150
'0:34.891',0.430,1.790
'0:34.898',0.760,5.020
'0:34.906',-1.130,5.110
'0:34.914',-1.900,4.220
'0:34.922',-1.530,-0.200
'0:34.930',-1.220,-0.360
'0:34.938',-0.470,-0.290
'0:34.945',-0.110,-0.230
'0:34.953',-0.030,-0.320
'0:34.961',-0.040,-0.310
'0:34.969',0.000,-0.310
'0:34.977',0.020,-0.320
'0:34.984',0.050,-0.320
'0:34.992',0.030,-0.290
'0:35.000',0.050,-0.290
'0:35.008',0.060,-0.310
'0:35.016',0.070,-0.280
'0:35.023',0.070,-0.280
'0:35.031',0.080,-0.270
'0:35.039',0.070,-0.290
'0:35.047',0.090,-0.260
'0:35.055',0.110,-0.250
'0:35.063',0.120,-0.260
'0:35.070',0.140,-0.250
'0:35.078',0.140,-0.240
'0:35.086',0.150,-0.250
'0:35.094',0.160,-0.290
'0:35.102',0.170,-0.260
'0:35.109',0.170,-0.290
'0:35.117',0.170,-0.340
'0:35.125',0.150,-0.400
'0:35.133',0.140,-0.380
'0:35.141',0.140,-0.420
'0:35.148',0.120,-0.450
'0:35.156',0.080,-0.430
'0:35.164',0.050,-0.370
'0:35.172',0.040,-0.310
'0:35.180',0.010,-0.240
'0:35.188',0.010,-0.130
'0:35.195',-0.010,-0.050
'0:35.203',0.000,-0.050
'0:35.211',-0.010,0.000
'0:35.219',0.000,-0.020
'0:35.227',0.020,-0.030
'0:35.234',0.020,-0.040
'0:35.242',0.010,-0.020
'0:35.250',0.010,-0.040
'0:35.258',0.010,-0.060
'0:35.266',0.000,-0.030
'0:35.273',0.010,-0.030
'0:35.281',0.020,-0.070
'0:35.289',0.020,-0.100
'0:35.297',0.030,-0.060
'0:35.305',0.030,-0.060
'0:35.313',0.020,-0.090
'0:35.320',0.020,-0.070
'0:35.328',0.040,-0.080
'0:35.336',0.030,-0.120
'0:35.344',0.040,-0.140
'0:35.352',0.030,-0.130
'0:35.359',0.040,-0.140
'0:35.367',0.040,-0.150
'0:35.375',0.010,-0.130
'0:35.383',0.000,-0.140
'0:35.391',-0.020,-0.160
'0:35.398',-0.020,-0.160
'0:35.406',-0.020,-0.120
'0:35.414',-0.040,-0.140
'0:35.422',-0.040,-0.140
'0:35.430',-0.050,-0.160
'0:35.438',-0.060,-0.130
'0:35.445',-0.060,-0.160
'0:35.453',-0.050,-0.170
'0:35.461',-0.070,-0.130
'0:35.469',-0.060,-0.140
'0:35.477',0.010,-0.120
'0:35.484',0.000,-0.100
'0:35.492',0.020,-0.030
'0:35.500',0.060,0.070
'0:35.508',0.170,0.210
'0:35.516',0.110,0.240
'0:35.523',0.060,0.250
'0:35.531',0.030,0.120
'0:35.539',-0.070,0.060
'0:35.547',-0.110,0.050
'0:35.555',-0.120,-0.050
'0:35.563',-0.100,-0.210
'0:35.570',-0.090,-0.200
'0:35.578',-0.110,-0.200
'0:35.586',-0.110,-0.230
'0:35.594',-0.110,-0.210
'0:35.602',-0.110,-0.350
'0:35.609',0.050,0.120
'0:35.617',0.320,1.700
'0:35.625',0.670,4.950
'0:35.633',-0.670,5.110
'0:35.641',-1.710,4.330
'0:35.648',-1.370,-0.130
'0:35.656',-1.160,-0.420
'0:35.664',-0.620,-0.410
'0:35.672',-0.210,-0.260
'0:35.680',-0.090,-0.340
'0:35.688',-0.060,-0.330
'0:35.695',-0.030,-0.350
'0:35.703',-0.010,-0.340
'0:35.711',-0.030,-0.320
'0:35.719',0.010,-0.310
'0:35.727',0.020,-0.340
'0:35.734',-0.010,-0.320
'0:35.742',0.020,-0.300
'0:35.750',0.040,-0.310
'0:35.758',0.040,-0.340
'0:35.766',0.040,-0.250
'0:35.773',0.090,-0.260
'0:35.781',0.090,-0.290
'0:35.789',0.090,-0.240
'0:35.797',0.110,-0.210
'0:35.805',0.120,-0.230
'0:35.813',0.130,-0.240
'0:35.820',0.130,-0.200
'0:35.828',0.130,-0.190
'0:35.836',0.150,-0.240
'0:35.844',0.160,-0.240
'0:35.852',0.160,-0.240
'0:35.859',0.150,-0.260
'0:35.867',0.150,-0.320
'0:35.875',0.130,-0.300
'0:35.883',0.120,-0.300
'0:35.891',0.100,-0.270
'0:35.898',0.060,-0.230
'0:35.906',0.050,-0.170
'0:35.914',0.050,-0.140
'0:35.922',0.030,-0.130
'0:35.930',0.030,-0.100
'0:35.938',0.030,-0.110
'0:35.945',0.020,-0.150
'0:35.953',0.030,-0.160
'0:35.961',0.020,-0.130
'0:35.969',0.040,-0.160
'0:35.977',0.020,-0.190
'0:35.984',0.050,-0.170
'0:35.992',0.040,-0.180
'0:36.000',0.050,-0.200
'0:36.008',0.050,-0.210
'0:36.016',0.040,-0.180
'0:36.023',0.050,-0.200
'0:36.031',0.050,-0.210
'0:36.039',0.040,-0.190
'0:36.047',0.040,-0.190
'0:36.055',0.040,-0.210
'0:36.063',0.030,-0.210
'0:36.070',0.020,-0.190
'0:36.078',0.010,-0.200
'0:36.086',0.010,-0.210
'0:36.094',-0.010,-0.220
'0:36.102',0.000,-0.210
'0:36.109',0.000,-0.200
'0:36.117',-0.010,-0.240
'0:36.125',-0.020,-0.190
'0:36.133',-0.020,-0.200
'0:36.141',-0.020,-0.240
'0:36.148',-0.020,-0.230
'0:36.156',-0.030,-0.200
'0:36.164',-0.030,-0.220
'0:36.172',-0.010,-0.230
'0:36.180',-0.030,-0.200
'0:36.188',-0.030,-0.200
'0:36.195',-0.030,-0.230
'0:36.203',-0.030,-0.230
'0:36.211',-0.030,-0.190
'0:36.219',0.030,-0.140
'0:36.227',0.030,-0.160
'0:36.234',0.020,-0.080
'0:36.242',0.070,-0.030
'0:36.250',0.120,0.150
'0:36.258',0.110,0.100
'0:36.266',0.040,0.150
'0:36.273',0.010,0.110
'0:36.281',-0.070,-0.020
'0:36.289',-0.140,0.020
'0:36.297',-0.120,-0.030
'0:36.305',-0.110,-0.170
'0:36.313',-0.110,-0.250
'0:36.320',-0.110,-0.230
'0:36.328',-0.120,-0.230
'0:36.336',-0.120,-0.210
'0:36.344',-0.110,-0.250
'0:36.352',-0.050,-0.180
'0:36.359',0.310,1.060
'0:36.367',0.630,4.320
'0:36.375',-0.400,5.110
'0:36.383',-1.870,5.000
'0:36.391',-1.790,0.830
'0:36.398',-1.290,-0.450
'0:36.406',-0.630,-0.430
'0:36.414',-0.270,-0.210
'0:36.422',-0.020,-0.330
'0:36.430',-0.030,-0.300
'0:36.438',0.000,-0.330
'0:36.445',0.020,-0.340
'0:36.453',0.040,-0.330
'0:36.461',0.050,-0.300
'0:36.469',0.080,-0.310
'0:36.477',0.080,-0.310
'0:36.484',0.080,-0.250
'0:36.492',0.100,-0.260
'0:36.500',0.120,-0.270
'0:36.508',0.130,-0.260
'0:36.516',0.160,-0.230
'0:36.523',0.170,-0.230
'0:36.531',0.190,-0.250
'0:36.539',0.200,-0.220
'0:36.547',0.230,-0.210
'0:36.555',0.250,-0.240
'0:36.563',0.270,-0.270
'0:36.570',0.290,-0.250
'0:36.578',0.310,-0.270
'0:36.586',0.310,-0.310
'0:36.594',0.300,-0.320
'0:36.602',0.290,-0.330
'0:36.609',0.280,-0.380
'0:36.617',0.240,-0.400
'0:36.625',0.200,-0.360
'0:36.633',0.160,-0.330
'0:36.641',0.120,-0.290
'0:36.648',0.080,-0.210
'0:36.656',0.060,-0.140
'0:36.664',0.050,-0.080
'0:36.672',0.060,-0.060
'0:36.680',0.050,0.000
'0:36.688',0.060,0.000
'0:36.695',0.050,-0.030
'0:36.703',0.050,-0.020
'0:36.711',0.050,-0.020
'0:36.719',0.050,-0.010
'0:36.727',0.050,-0.050
'0:36.734',0.050,-0.020
'0:36.742',0.060,-0.020
'0:36.750',0.060,-0.050
'0:36.758',0.060,-0.060
'0:36.766',0.060,-0.060
'0:36.773',0.070,-0.070
'0:36.781',0.090,-0.100
'0:36.789',0.090,-0.070
'0:36.797',0.100,-0.100
'0:36.805',0.100,-0.110
'0:36.813',0.090,-0.130
'0:36.820',0.090,-0.110
'0:36.828',0.100,-0.130
'0:36.836',0.080,-0.160
'0:36.844',0.080,-0.140
'0:36.852',0.080,-0.130
'0:36.859',0.070,-0.170
'0:36.867',0.050,-0.170
'0:36.875',0.060,-0.130
'0:36.883',0.060,-0.140
'0:36.891',0.060,-0.170
'0:36.898',0.040,-0.150
'0:36.906',0.040,-0.140
'0:36.914',0.030,-0.170
'0:36.922',0.030,-0.190
'0:36.930',0.020,-0.160
'0:36.938',0.030,-0.160
'0:36.945',0.020,-0.180
'0:36.953',0.020,-0.180
'0:36.961',0.010,-0.170
'0:36.969',0.020,-0.170
'0:36.977',0.030,-0.160
'0:36.984',0.060,-0.090
'0:36.992',0.080,-0.080
'0:37.000',0.110,-0.060
'0:37.008',0.120,0.020
'0:37.016',0.180,0.230
'0:37.023',0.160,0.150
'0:37.031',0.080,0.160
'0:37.039',0.040,0.120
'0:37.047',-0.070,0.030
'0:37.055',-0.100,0.010
'0:37.063',-0.080,-0.050
'0:37.070',-0.070,-0.170
'0:37.078',-0.070,-0.230
'0:37.086',-0.060,-0.240
'0:37.094',-0.080,-0.200
'0:37.102',-0.060,-0.190
'0:37.109',-0.060,-0.310
'0:37.117',0.060,-0.060
'0:37.125',0.450,1.500
'0:37.133',0.760,4.760
'0:37.141',-0.960,5.110
'0:37.148',-1.930,4.370
'0:37.156',-1.700,0.130
'0:37.164',-1.250,-0.470
'0:37.172',-0.470,-0.410
'0:37.180',-0.130,-0.250
'0:37.188',0.010,-0.330
'0:37.195',0.010,-0.360
'0:37.203',0.050,-0.340
'0:37.211',0.070,-0.350
'0:37.219',0.080,-0.350
'0:37.227',0.090,-0.360
'0:37.234',0.100,-0.320
'0:37.242',0.110,-0.330
'0:37.250',0.120,-0.340
'0:37.258',0.130,-0.330
'0:37.266',0.130,-0.310
'0:37.273',0.140,-0.320
'0:37.281',0.150,-0.330
'0:37.289',0.160,-0.290
'0:37.297',0.180,-0.290
'0:37.305',0.200,-0.290
'0:37.313',0.190,-0.300
'0:37.320',0.200,-0.270
'0:37.328',0.240,-0.300
'0:37.336',0.230,-0.300
'0:37.344',0.250,-0.300
'0:37.352',0.240,-0.310
'0:37.359',0.230,-0.350
'0:37.367',0.200,-0.390
'0:37.375',0.200,-0.400
'0:37.383',0.160,-0.410
'0:37.391',0.140,-0.410
'0:37.398',0.100,-0.350
'0:37.406',0.070,-0.280
'0:37.414',0.060,-0.220
'0:37.422',0.050,-0.170
'0:37.430',0.030,-0.090
'0:37.438',0.050,-0.070
'0:37.445',0.060,-0.090
'0:37.453',0.060,-0.060
'0:37.461',0.060,-0.060
'0:37.469',0.070,-0.090
'0:37.477',0.060,-0.100
'0:37.484',0.040,-0.070
'0:37.492',0.060,-0.070
'0:37.500',0.060,-0.090
'0:37.508',0.060,-0.090
'0:37.516',0.050,-0.080
'0:37.523',0.080,-0.120
'0:37.531',0.050,-0.140
'0:37.539',0.060,-0.110
'0:37.547',0.070,-0.120
'0:37.555',0.080,-0.140
'0:37.563',0.080,-0.160
'0:37.570',0.070,-0.150
'0:37.578',0.080,-0.160
'0:37.586',0.080,-0.200
'0:37.594',0.070,-0.170
'0:37.602',0.080,-0.180
'0:37.609',0.080,-0.220
'0:37.617',0.060,-0.200
'0:37.625',0.040,-0.200
'0:37.633',0.040,-0.200
'0:37.641',0.040,-0.230
'0:37.648',0.030,-0.180
'0:37.656',0.040,-0.190
'0:37.664',0.020,-0.220
'0:37.672',0.020,-0.210
'0:37.680',0.010,-0.200
'0:37.688',0.020,-0.210
'0:37.695',0.010,-0.210
'0:37.703',0.020,-0.190
'0:37.711',0.010,-0.200
'0:37.719',0.010,-0.220
'0:37.727',0.010,-0.230
'0:37.734',0.000,-0.200
'0:37.742',0.020,-0.220
'0:37.750',0.000,-0.220
'0:37.758',0.000,-0.210
'0:37.766',0.000,-0.210
'0:37.773',0.010,-0.220
'0:37.781',0.010,-0.170
'0:37.789',0.060,-0.140
'0:37.797',0.020,-0.090
'0:37.805',0.100,-0.080
'0:37.813',0.090,0.060
'0:37.820',0.180,0.180
'0:37.828',0.100,0.130
'0:37.836',0.040,0.130
'0:37.844',-0.010,0.040
'0:37.852',-0.120,0.010
'0:37.859',-0.100,-0.030
'0:37.867',-0.110,-0.110
'0:37.875',-0.080,-0.230
'0:37.883',-0.080,-0.260
'0:37.891',-0.090,-0.270
'0:37.898',-0.100,-0.220
'0:37.906',-0.080,-0.230
'0:37.914',-0.060,-0.450
'0:37.922',0.230,0.370
'0:37.930',0.470,2.590
'0:37.938',0.720,5.110
'0:37.945',-1.620,5.110
'0:37.953',-1.940,3.120
'0:37.961',-1.260,-0.690
'0:37.969',-1.080,-0.450
'0:37.977',-0.390,-0.310
'0:37.984',-0.030,-0.320
'0:37.992',-0.020,-0.380
'0:38.000',0.000,-0.410
'0:38.008',0.020,-0.380
'0:38.016',0.050,-0.380
'0:38.023',0.060,-0.400
'0:38.031',0.060,-0.410
'0:38.039',0.080,-0.370
'0:38.047',0.090,-0.370
'0:38.055',0.100,-0.380
'0:38.063',0.110,-0.360
'0:38.070',0.130,-0.340
'0:38.078',0.140,-0.360
'0:38.086',0.140,-0.370
'0:38.094',0.160,-0.330
'0:38.102',0.170,-0.330
'0:38.109',0.180,-0.340
'0:38.117',0.190,-0.330
'0:38.125',0.210,-0.330
'0:38.133',0.210,-0.340
'0:38.141',0.220,-0.380
'0:38.148',0.210,-0.370
'0:38.156',0.210,-0.400
'0:38.164',0.200,-0.450
'0:38.172',0.170,-0.490
'0:38.180',0.130,-0.500
'0:38.188',0.130,-0.510
'0:38.195',0.090,-0.500
'0:38.203',0.040,-0.410
'0:38.211',0.040,-0.350
'0:38.219',0.010,-0.300
'0:38.227',-0.010,-0.240
'0:38.234',-0.010,-0.160
'0:38.242',0.000,-0.150
'0:38.250',0.000,-0.150
'0:38.258',0.010,-0.120
'0:38.266',0.020,-0.120
'0:38.273',0.020,-0.130
'0:38.281',0.020,-0.150
'0:38.289',0.010,-0.120
'0:38.297',0.010,-0.140
'0:38.305',0.010,-0.170
'0:38.313',0.010,-0.140
'0:38.320',0.010,-0.130
'0:38.328',0.030,-0.180
'0:38.336',0.030,-0.190
'0:38.344',0.030,-0.160
'0:38.352',0.030,-0.170
'0:38.359',0.040,-0.210
'0:38.367',0.030,-0.210
'0:38.375',0.050,-0.200
'0:38.383',0.040,-0.230
'0:38.391',0.050,-0.260
'0:38.398',0.030,-0.240
'0:38.406',0.040,-0.250
'0:38.414',0.010,-0.260
'0:38.422',0.010,-0.260
'0:38.430',0.020,-0.250
'0:38.438',0.010,-0.270
'0:38.445',0.000,-0.270
'0:38.453',-0.020,-0.230
'0:38.461',0.000,-0.220
'0:38.469',-0.010,-0.250
'0:38.477',-0.020,-0.240
'0:38.484',-0.030,-0.230
'0:38.492',-0.030,-0.240
'0:38.500',-0.030,-0.270
'0:38.508',-0.030,-0.240
'0:38.516',-0.030,-0.240
'0:38.523',-0.040,-0.250
'0:38.531',-0.040,-0.270
'0:38.539',-0.050,-0.250
'0:38.547',-0.050,-0.240
'0:38.555',-0.050,-0.280
'0:38.563',-0.060,-0.240
'0:38.570',-0.060,-0.250
'0:38.578',-0.050,-0.250
'0:38.586',-0.060,-0.270
'0:38.594',-0.070,-0.230
'0:38.602',-0.060,-0.220
'0:38.609',-0.030,-0.200
'0:38.617',0.010,-0.160
'0:38.625',-0.020,-0.120
'0:38.633',0.050,-0.120
'0:38.641',0.040,0.040
'0:38.648',0.120,0.160
'0:38.656',0.060,0.120
'0:38.664',0.020,0.110
'0:38.672',-0.040,0.010
'0:38.680',-0.150,-0.020
'0:38.688',-0.130,-0.070
'0:38.695',-0.130,-0.170
